-1.62705668603,-10.6998909884,11.3580268895,-7.54511991279
3.11766812399,4.12172638941,12.9699317318,3.02855692639
6.792392934,5.62334376718,11.5818365741,11.3422337656
-2.99288225598,-5.57503885506,9.2737414164,4.01591060474
4.66184255403,-4.75342147728,8.86564625869,-3.91041255608
5.95656736405,0.368195900483,5.45755110098,-0.5367357169
12.4112921741,4.51981327825,6.72945594327,3.44694112228
4.11601698408,3.92143065602,6.41136078556,1.33061796146
2.3207417941,-0.0769519662063,4.30326562785,2.96429480063
10.9754666041,2.22466541157,5.42517047015,2.47797163981
5.04019141413,4.54628278933,4.96707531244,3.24164847899
5.23491622415,6.6179001671,3.50898015473,1.20532531817
0.739641034161,2.50951754487,5.03088499702,1.96900215734
3.55436584418,-3.16886507736,5.11278983931,2.64267899652
0.309090654198,-0.237247699588,3.7446946816,-0.1636441643
7.03381546422,6.84436967818,5.81659952389,5.94003267488
11.1385402742,10.335987056,5.09850436618,5.38370951406
-0.886734915752,7.09760443371,4.11040920847,1.72738635323
-4.40201010573,1.23922181149,3.34231405076,-1.22893680759
5.99271470428,2.60083918925,7.81421889305,0.454740031588
3.5474395143,1.05245656703,4.34612373534,1.70841687077
-3.13783567569,2.17407394479,0.558028577634,-0.697906290055
2.15688913433,8.60569132257,3.96993341992,1.98577054912
-0.0183860556572,-4.35269129966,0.801838262218,-2.5505526117
-4.25366124564,-2.3410739219,2.46374310451,-2.42687577252
0.80106356438,-3.16945654412,1.0356479468,1.10680106665
-1.35421162561,1.12216083364,-0.402447210912,3.83047790583
-2.06948681558,4.87377821142,3.63945763138,4.68415474501
-2.65476200558,1.03539558918,3.63136247367,-1.16216841581
-3.24003719556,-3.57298703305,2.35326731596,-2.99849157663
-1.29531238554,2.10863034472,1.25517215825,2.21518526254
-6.62058757553,6.04024772249,1.09707700054,5.99886210172
-0.945862765511,7.40186510026,1.68898184284,5.3525389409
-5.04113795549,-4.48651752197,-3.02911331487,1.13621578008
-3.32641314547,-2.5449001442,-3.07720847258,1.15989261925
-2.72168833546,3.88671723357,-2.11530363029,0.273569458432
-7.87696352544,-1.81166538866,-1.923398788,-6.36275370239
-6.80223871543,-2.79004801089,-1.39149394571,-5.35907686321
0.772486094589,-0.828430633119,-3.13958910342,-1.17540002403
-3.90278909539,-2.54681325535,-4.52768426113,-2.82172318486
-4.69806428537,0.294804122415,-2.65577941884,-1.18804634568
1.98666052464,4.51642150019,-5.83387457654,4.0256304935
3.05138533466,-0.47196112205,-5.64196973426,-1.22069266732
0.386110144675,-2.35034374427,-3.83006489196,-3.16701582814
-0.0191650453125,-2.7487263665,-0.618160049675,-1.44333898897
-2.7444402353,0.982891011263,-1.80625520738,-1.03966214979
3.35028457472,0.204508389033,-2.77435036509,-1.21598531061
-2.88499061526,-1.67387423319,-3.2224455228,-5.63230847143
-5.51026580525,2.79774314458,-3.94054068051,-1.31863163226
-6.69554099523,-8.63063947766,-8.32863583822,-4.39495479308
-8.64081618522,-7.68902209989,-7.95673099593,-3.6512779539
-3.4860913752,-2.90740472212,-10.3548261536,-2.79760111472
-2.95136656518,-2.65578734435,-2.73292131135,-2.19392427555
-2.64664175517,-2.55416996658,-1.28101646906,-2.24024743637
1.77808305485,-5.88255258881,-1.15911162676,1.56342940281
3.06280786487,4.44906478896,-0.577206784474,6.86710624199
10.7475326749,5.12068216673,-2.86530194218,7.21078308117
-2.1277425151,8.8222995445,-2.62339709989,10.0044599203
6.69698229492,-1.11608307774,-5.5814922576,10.0081367595
3.16170710493,-1.74446569997,-2.20958741531,3.9118135987
0.206431914943,1.91715167781,-1.49768257302,4.94549043788
4.18115672496,5.56876905558,-0.785777730729,6.86916727705
3.19588153498,5.27038643335,-1.39387288843,5.26284411623
3.73060634499,-2.52799618889,-2.11196804615,2.09652095541
-8.88466884498,-5.32637881111,-5.22006320385,-2.05980220541
-9.73994403497,-3.73476143335,-4.59815836156,-2.99612536623
1.45478077505,1.82685594443,-5.72625351927,-2.45244852706
-5.97049441493,-2.53152667781,-3.72434867698,-6.49877168788
-12.9857696049,-8.55990930003,-6.16244383469,-8.8150948487
-6.71104479491,-13.9482919223,-9.0205389924,-7.83141800952
-7.07631998489,-7.2866745445,-9.24863415011,-6.12774117034
-8.98159517488,-2.81505716673,-8.96672930782,-4.65406433117
-7.66687036485,-6.37343978896,-6.87482446553,-6.08038749199
-7.91214555484,-11.4218224112,-8.93291962324,-6.72671065281
-0.227420744821,-13.5902050334,-11.8010147809,-8.68303381363
-6.8926959348,-6.16858765565,-9.42910993865,-8.85935697446
-2.02797112479,-0.676970277877,-8.67720509636,-4.00568013528
-0.0832463147744,-7.38535290011,-13.3053002541,-7.3120032961
-8.06852150476,-5.30373552234,-9.06339541178,-5.78832645692
-5.39379669474,-6.35211814458,-8.09149056949,-5.76464961775
4.06092811527,-2.8905007668,-11.9195857272,-5.98097277857
4.47565292529,-0.358883389039,-7.57768088491,-3.22729593939
-1.03962226469,1.74273398874,-6.22577604262,-2.57361910021
0.365102545329,-1.43564863349,-8.68387120033,-2.74994226103
4.19982735534,-8.38403125573,-12.711966358,-5.85626542186
-1.72544783464,-0.492413877953,-9.48006151574,-2.61258858268
6.42927697537,4.90920349981,-6.90815667345,2.4710882565
10.6940017854,7.44082087759,-6.17625183116,3.18476509568
4.89872659541,-3.31756174465,-6.42434698888,-3.02155806515
0.353451405419,0.0140556331244,-5.47244214658,0.0421187740321
-9.73182378456,7.8856730109,-4.94053730429,0.0857956132095
-1.25709897454,10.5872903887,-4.408632462,1.04947245239
-0.772374164531,4.12890776643,-2.86672761971,-1.95685070844
-4.82764935451,0.4405251442,-3.86482277742,1.10682613074
1.0070754555,-3.46785747803,-5.85291793512,1.07050296992
3.26180026552,-1.37624010026,-6.21101309283,-4.3858201909
2.02652507553,0.615377277507,-3.15910825055,-3.13214335172
5.00124988555,1.78699465528,-0.187203408255,-2.96846651255
-3.54402530443,2.62861203305,0.00470143403436,-3.30478967337
-10.1593004944,-6.88977058918,-2.74339372367,-6.45111283419
-7.6045756844,-2.68815321141,0.488511118619,-7.91743599501
3.53014912562,3.05346416635,0.420415960911,-3.82375915584
1.20487393563,0.0350815441197,-0.237679196798,-4.60008231666
-3.70040125435,-0.773301078101,0.094225645491,-2.43640547748
-3.14567644434,-2.62168370033,-0.693869512219,-3.1027286383
-4.11095163431,-0.410066322569,2.38803533007,-3.38905179912
-2.1462268243,7.4615510552,2.11994017236,-0.325374959946
2.33849798571,6.36316843297,3.76184501465,3.14830187923
0.843222795731,-1.66521418926,4.85374985695,1.25197871841
1.65794760574,-3.00359681149,4.53565469924,2.95565555759
2.55267241576,-2.67197943372,3.63755954153,3.15933239676
4.98739722578,3.65963794405,4.34946438382,6.13300923594
3.42212203579,1.17125532182,3.87136922611,3.43668607512
0.0168468458141,-6.08712730041,2.6432740684,-2.6896370857
-4.90842834417,-4.27550992264,3.17517891069,-4.73596024652
-1.49370353415,-5.77389254487,2.60708375298,-3.12228340735
-10.5489787241,2.7877248329,7.81898859527,1.50139343183
-3.62425391412,2.08934221067,10.6008934376,1.77507027101
4.89047089589,-0.319040411567,15.2027982799,5.26874711019
5.66519570591,-4.56742303379,13.0347031221,1.49242394936
10.3299205159,8.14419434398,11.8466079644,10.5461007885
5.99464532595,8.79581172174,11.5485128067,6.74977762772
4.28937013596,6.53742909952,12.060417649,5.8134544669
7.64409494598,1.70904647728,11.3623224913,7.13713130608
6.53881975599,-3.09933614494,10.8142273336,5.91080814525
8.03354456601,5.06228123282,12.3561321759,9.60448498443
10.128269376,8.0838986106,16.1280370182,7.92816182361
6.03299418604,14.1755159884,17.4899418605,13.2518386628
7.91494912791,-1.51736555231,2.2047928779,-5.29898982558
3.2402833444,-5.62333715778,3.92167113967,-9.53969717084
5.17561756089,7.26069123674,7.99854940143,2.04959548389
1.35095177738,3.63471963126,7.01542766319,1.07888813862
-2.07371400613,1.09874802579,4.82230592496,-2.00181920664
-4.69837978964,-2.17722357969,4.82918418673,-2.72252655191
-3.53304557315,3.12680481483,7.32606244849,1.84676610282
5.75228864334,4.21083320936,4.00294071026,3.23605875756
3.04762285983,8.93486160388,2.65981897202,5.43535141229
7.24295707632,-1.27111000159,-1.94330276621,2.27464406702
-4.6717087072,-0.00708160706563,-0.736424504448,1.83393672176
1.6636255093,-0.40305321254,1.92045375732,1.77322937649
-2.54104027421,-1.48902481802,-1.25266798092,0.152522031223
-3.79570605772,1.34500357651,-0.575789719151,-0.908185314041
-3.40037184124,5.12903197103,1.30108854262,0.0211073406917
-3.65503762475,-0.336939634442,2.41796680438,-0.399600004575
0.650296591746,-5.18291123991,-0.175154933855,-2.09030734984
4.29563080823,-0.00888284539542,1.55172332791,1.69898530489
1.09096502473,8.60514554913,3.71860158968,5.39827795962
-1.86370075879,-2.06082605635,0.72547985144,-2.10242938564
-3.45836654231,-12.6967976618,-1.46764188679,-8.71313673091
3.66696767419,-9.62276926729,-1.48076362503,-5.73384407617
4.00230189068,0.60125912723,-0.683885363262,-0.60455142144
4.70763610717,-4.52471247825,-3.1170071015,-6.15525876671
1.15297032366,-2.13068408372,-3.16012883973,-7.64596611197
-3.39169545985,-9.80665568919,-3.91325057797,-7.23667345724
-7.95636124336,-14.0026272947,-0.6763723162,-10.3373808025
-6.82102702687,-11.1485989001,-3.24949405443,-10.3480881478
1.55430718962,-4.59457050562,-3.47261579267,-2.75879549304
-1.71035859389,-3.4205421111,-6.28573753091,-2.81950283831
-7.2450243774,-12.0365137166,-6.77885926914,-7.95021018357
-0.379690160917,-11.692485322,-5.52198100737,-2.78091752884
4.43564405558,-6.87845692752,-5.58510274561,2.23837512589
3.72097827207,0.715571467001,-1.18822448385,0.417667780628
3.80631248855,4.83959986152,-2.03134622208,-0.293039564636
2.70164670505,-5.77637174395,-3.97446796031,-3.0937469099
-2.64301907847,-5.56234334943,-1.98758969855,-4.58445425517
-4.88768486198,-0.0983149548993,-0.530711436782,-0.595161600437
-2.68235064548,3.21571343963,-0.373833175017,2.2941310543
-2.887016429,7.69974183415,2.78304508675,2.43342370903
-6.47168221251,2.32377022867,0.839923348514,0.922716363764
-4.72634799602,-4.6022013768,0.0368016102802,-0.847990981503
-4.55101377953,-1.31817298228,1.71367987204,-1.84869832677
-2.83567956305,3.35585541225,0.0105581338103,2.74059432796
-7.27034534655,-3.23011619323,-3.05256360443,0.809886982697
-11.5250111301,-5.6960877987,-2.95568534266,-4.14082036257
-6.13967691358,-3.90205940418,-1.8188070809,-0.0715277078343
-5.90434269708,-2.47803100965,-0.121928819128,0.117764946899
-8.15900848059,8.07599738487,3.14494944264,4.01705760163
-5.0136742641,4.9800257794,-1.7481722956,0.916350256366
-3.23834004761,-0.195945826083,4.01870596617,-0.184357088901
-10.1430058311,-2.95191743156,1.78558422793,-0.0250644341686
-5.32767161463,5.43211096297,0.0824624896959,5.17422822057
6.78766260186,10.7261393575,-0.630659248534,7.3035208753
7.02299681834,5.93016775202,-4.91378098677,5.10281353003
-1.25166896516,-1.79580385346,-3.70690272501,-0.587893815233
-5.81633474868,-0.561775458933,-3.08002446324,-1.2686011605
1.68899946781,1.35225293559,-5.31314620148,-0.149308505766
-4.72566631569,2.23628133012,-7.97626793971,-2.51001585103
3.48966790079,-2.44969027536,-6.62938967795,-2.2007231963
8.09500211728,-6.35566188084,-5.96251141618,-1.99143054157
11.8203363338,1.38836651369,-2.27563315442,2.07786211317
13.9656705503,4.32239490822,-1.86875489265,5.2671547679
8.70100476675,8.49642330274,-3.50187663088,7.21644742263
10.4563389832,10.4104516973,2.96500163088,9.10574007737
0.35167319973,10.8844800918,2.80187989265,8.9550327321
6.75700741621,0.0285084863135,-3.47124184559,5.46432538683
5.50234163271,4.13253688084,-2.71436358382,4.44361804157
7.5376758492,6.93656527536,-2.24748532206,3.8029106963
3.21301006569,-0.0694063301053,-5.44060706029,-2.08779664896
-5.86165571782,-3.70537793558,-3.29372879853,-5.63850399423
-3.81632150133,-1.48134954106,-1.79685053676,-0.639211339498
-4.82098728484,-0.467321146527,0.170027725002,1.20008131524
2.43434693164,5.486707248,0.266905986769,2.27937396997
-0.0103188518697,3.82073564252,-1.18621575147,2.4086666247
-4.21498463537,1.01476403704,-0.6693374897,-2.44204072056
-2.78965041889,-5.50120756843,-1.14245922793,-3.45274806583
-0.9643162024,5.90282082609,2.30441903383,7.3265445889
0.421018014094,17.9868492206,5.3412972956,14.5358372436
0.656352230581,3.42087761514,3.57817555736,-0.854870101628
2.64168644707,-6.96509399033,-1.36494618087,-4.1155774469
2.14702066356,-1.9710655958,-2.60806791911,4.72371520784
0.642354880052,-4.28703720128,-2.36118965734,0.443007862572
-0.772310903463,10.0169911932,4.52568860442,6.6923005173
0.233023313034,12.0610195878,4.21256686619,8.24159317204
0.71835752952,-4.83495201771,-0.220554872049,1.54088582677
-6.926308254,-4.78092362318,1.16632338972,-0.229821518495
-8.0509740375,3.46310477134,0.753201651485,3.01947113624
2.13436017898,16.7171331659,4.46007991325,15.878763791
15.1396943955,10.1811615604,6.38695817502,12.3080564457
6.94502861197,4.18518995491,6.87383643678,6.61734910044
8.62036282846,2.30921834944,7.01071469855,4.61664175517
2.73569704495,2.52324674396,5.53759296031,3.44593440991
7.62103126143,8.09727513849,3.19447122208,7.22522706464
9.85636547792,10.861303533,3.44134948384,9.02451971937
5.85169969442,2.50533192754,4.23822774561,7.11381237411
-0.1029660891,0.169360322063,4.13510600737,3.39310502884
3.33236812739,9.47338871659,5.78198426914,7.38239768358
2.79770234389,9.39741711111,4.8888625309,5.71169033831
2.90303656037,3.84144550563,-0.02425920733,4.51098299304
1.19837077686,0.295473900158,6.28261905443,2.13027564778
2.95370499335,1.93950229468,7.5294973162,1.41956830251
7.93903920984,3.58353068921,4.78637557797,4.76886095724
4.26437342633,6.42755908374,4.47325383973,3.56815361198
0.78970764282,6.86158747826,1.75013210149,3.64744626671
-2.25495814069,-0.234384127216,0.787010363263,3.18673892144
0.740376075795,-0.690355732695,2.15388862503,0.646031576178
3.50571029229,-0.12632733817,-1.73923311321,0.0753242309111
2.97104450878,1.09770105636,-1.76235485144,-0.055383114357
2.80637872527,-0.49827054912,-4.37547658968,-1.94609045962
3.80171294176,-4.60424215459,-4.92859832792,-1.99679780489
1.20704715824,-9.52021376007,-0.191720066148,-6.23750515016
-2.82761862526,-3.49618536554,0.485158195617,-6.38821249542
-0.122284408775,1.56784302898,-2.70796354262,-5.90891984069
-1.53695019229,-4.65812857649,-3.96108528085,-8.97962718596
-10.9316159758,-12.204100182,-2.51420701909,-14.0003345312
-8.52628175931,-14.7200717874,-1.01732875732,-12.8310418765
-6.49094754282,-9.12604339292,-0.390450495557,-9.24174922176
-4.12561332632,-3.37201499839,-2.93357223379,-9.70245656702
-18.4602791098,-8.98798660387,-5.43669397202,-12.6931639123
-4.54494489335,-11.1039582093,-1.85981571026,-12.0138712576
1.71038932314,-14.6299298148,-4.9629374485,-9.99457860282
0.115723539631,-3.7759014203,-1.07605918673,-4.17528594809
0.431057756119,-1.04187302577,-0.799180924965,-0.945993293353
-1.00360802739,0.242155368753,-0.8223026632,0.25329936138
-2.5282738109,-2.98381623672,0.134575598568,1.13259201611
-1.26293959441,-3.0597878422,2.53145386033,-1.51811532915
-8.48760537792,-4.37575944768,-0.0416678779038,-7.45882267442
-4.30535973836,1.38452034885,0.687885174419,-1.7492550872
2.54040995239,-7.12069601491,2.86436286852,-4.60631775315
0.116179643162,-8.72591237868,-1.81915943737,-2.2133804191
1.57194933391,-11.4211287424,-3.38268174327,-2.04044308505
-6.68228097532,-7.9063451062,-3.88620404917,-4.347505751
1.16348871544,-7.54156146996,-5.28972635506,-4.94456841695
-4.7007415938,0.513222166272,-4.87324866096,-0.3416310829
-8.47497190303,-8.22199419748,-4.60677096686,-5.25869374885
-6.98920221227,-9.01721056124,-4.08029327275,-4.9057564148
-1.91343252151,-0.382426925011,-1.61381557865,1.83718091925
7.82233716926,8.25235671124,2.07266211546,6.0901182533
3.82810686001,2.71714034746,1.11913980956,6.26305558735
0.833876550772,-0.448076016291,-0.274382496336,4.2059929214
1.58964624153,5.19670761995,2.19209519777,5.20893025545
-2.2945840677,0.531491256181,0.60857289187,3.2418675895
3.32118562306,3.52627489243,-0.454949414026,5.79480492355
4.77695531382,2.53105852866,-0.678471719919,5.92774225761
4.43272500459,1.2358421649,-0.0219940258175,6.44067959165
2.35849469534,-1.74937419886,-0.795516331716,3.46361692571
5.7642643861,-2.43459056263,-5.27903863761,-1.50344574024
-5.80996592313,-0.699806926379,-3.91256094351,-5.01050840619
2.91580376763,0.734976709857,2.8039167506,-4.07757107214
-11.4884265416,-7.44023965391,0.960394444701,-8.88463373809
-5.72265685084,-7.18545601767,-1.9431278612,-10.061696404
5.40311283991,-5.64067238143,-3.25665016709,-3.62875906999
0.03888253068,-4.98588874519,-3.92017247299,-4.12582173594
4.18465222143,0.118894891049,-3.73369477889,0.61711559811
-8.7095780878,-0.256321472712,-1.53721708478,-1.99994706784
-11.003808397,-7.62153783647,-2.60073939068,-9.57700973379
-5.66803870627,-9.51675420023,-3.37426169658,-10.4340723997
-5.31226901551,-2.531970564,-0.217784002471,-7.26113506569
-1.58649932475,4.15281307224,2.69869369163,-2.54819773164
-0.110729633991,-2.47240329153,0.805171385735,-2.02526039759
1.73504005677,-1.17761965528,-2.33835092016,1.09767693646
6.39080974753,-1.88283601904,-1.89187322605,-2.36938572949
3.62657943829,9.10194761719,1.45460446805,0.963551604564
0.482349129059,13.2267312534,-0.148917837851,1.87648893861
-5.03188118018,-5.23848511033,-0.162440143748,-7.42057372734
-6.54611148942,3.13629852591,5.02403755036,-4.04763639328
0.619658201344,2.11108216216,1.75051524446,-0.514699059233
-4.49457210789,5.85586579839,-1.80300706144,0.758238274817
2.93119758286,10.8206494346,3.39347063267,2.16117560887
5.08696727362,7.72543307087,4.26994832678,1.73411294292
-5.00726303562,-3.8497832929,-0.353573979122,-2.51294972303
0.87850665515,3.19500034334,1.64290371498,0.209987611017
-6.19572365409,-1.87021602042,1.38938140908,-7.72707505493
-5.62995396333,-6.86543238418,0.785859103187,-11.3041377209
-11.4141842726,-2.01064874794,3.39233679729,-13.6712003868
1.0815854182,1.28413488829,4.82881449139,-1.15826305278
0.407355108953,3.47891852454,0.435292185499,3.91467428127
3.83312479972,10.5537021608,1.0817698796,1.16761161532
6.91889449048,8.04848579702,2.0082475737,6.31054894937
2.41466418124,10.6732694333,5.07472526781,8.67348628342
-3.169566128,-2.88194693052,2.11120296191,2.45642361747
-2.73379643723,-1.95716329428,1.69768065602,-3.06063904848
3.42197325353,11.147620342,0.274158350119,5.20229828557
-0.132257055709,3.39240397821,-2.17936395577,-0.00476438037549
0.213512635048,-1.04281238555,-3.67288626167,4.52817295367
1.06928232581,-3.44802874932,-3.54640856757,7.66111028773
-5.08494798342,3.32675488692,0.550069126533,5.13404762178
0.910821707337,7.00153852316,1.69654682064,5.73698495583
-2.7334086019,4.27632215939,-0.646975485259,3.36992228988
-4.14763891113,-2.63889420436,-1.00049779116,-0.657140376074
-0.611869220375,-5.02411056812,0.685979902952,0.0957969579777
3.28390047038,0.660673068116,-1.89754240294,5.86873429203
5.70967016114,2.45545670435,0.878935291155,6.62167162608
2.4954398519,11.3502403406,2.53541298526,11.4946089601
2.99120954267,9.52502397683,2.50189067937,11.4075462942
6.59697923343,3.00980761307,2.61836837347,8.77048362823
6.79274892419,10.7545912493,4.46484606757,12.9434209623
1.85851861496,8.45937488555,5.23132376167,11.1363582963
1.05428830571,10.7841585218,5.65780145578,9.78929563038
6.83005799648,-0.431057841975,0.454279149882,3.69223296443
6.05582768724,-8.70627420574,-0.919243156015,0.135170298481
2.871597378,-4.57149056951,0.247234538092,-1.88189236747
4.28736706876,0.513293066739,-0.146287767806,-0.698955033418
16.9431367595,1.76807670298,3.1201899263,3.63398230063
4.11890645029,-3.00713966079,1.6766676204,1.24691963468
5.06467614105,-8.45235602454,-0.926854685495,-1.97014303127
6.23044583181,3.56242761169,2.60962300861,1.55279430278
-2.87378447743,0.127211247927,1.85610070271,-1.57426836317
1.82198521333,-6.12800511583,-0.547421603183,-4.37133102912
3.5977549041,3.31677852041,3.11905609092,-0.0983936950652
5.97352459486,-2.95843784335,1.92553378502,1.08454363899
9.17929428562,-6.01365420711,3.00201147913,-1.33251902696
2.48506397638,6.37112942912,3.80848917323,-0.279581692912
4.63083366714,6.93591306536,-0.245033132665,3.49335564114
-4.1233966421,2.6506967016,0.581444561438,-1.36370702481
-8.60762695134,4.42548033784,4.88792225554,-0.170769690762
3.85814273942,8.39026397408,2.45439994965,6.62216764329
3.03391243019,1.24504761031,1.86087764375,4.11510497734
7.37968212095,9.25983124656,6.20735533785,10.5280423114
9.93545181172,3.07461488279,4.35383303196,7.08097964544
2.14122150248,-2.31060148097,2.48031072606,3.61391697949
8.80699119323,6.19418215528,3.02678842016,3.56685431354
3.222760884,8.89896579151,2.85326611426,4.92979164759
1.84853057476,10.9237494277,4.55974380837,5.62272898164
-3.50569973448,1.33853306399,0.406221502475,-0.364333684305
5.31006995629,-8.97668329978,0.462699196578,-3.27139635026
1.67583964705,-4.12189966354,1.89917689068,-3.42845901621
-1.02839066219,5.0928839727,0.525654584784,0.774478317844
0.0573790285707,1.45766760894,-2.44786772111,0.407415651895
-1.54685128068,-2.04754875482,-0.11139002701,-3.67964701405
-4.33108158991,-9.95276511859,-1.8949123329,-7.30670968
-5.66531189915,-7.76798148234,-0.428434638801,-6.25377234595
-3.06954220839,-0.1231978461,1.7380430553,-1.9808350119
0.716227482379,8.15158579013,3.9845207494,4.49210232215
-0.858002826863,-6.50363057363,-1.63900155649,-3.1049603438
-7.1622331361,-9.06884693739,-1.07252386239,-4.80202300975
-6.90646344534,-3.82406330115,-0.756046168284,-2.8590856757
2.17930624542,-1.40927966491,-3.69956847418,-1.27614834165
-5.08492406381,4.10550397132,-2.46309078007,1.1567889924
-1.13915437306,-1.36971239244,-1.13661308597,1.33972632645
-1.33338468229,-9.4949287562,-3.07013539187,-3.8273363395
3.86238500847,-4.75014511996,0.0163423022386,-2.19439900545
-8.20184530076,-2.42536148371,-1.82718000366,-4.7214616714
-5.15607561,-3.33057784748,-2.49070230956,-5.57852433735
-6.67030591924,1.68420578876,0.175775384545,0.464412996702
-4.75453622849,-2.331010575,-1.89774692135,-1.82264966925
-6.15876653772,-8.76622693877,-8.49126922724,-7.2297123352
4.71700315304,-5.65144330252,-10.8047915331,-3.23677500115
-2.4972271562,-3.76665966629,-5.29831383904,-3.68383766709
-9.93145746543,-2.35187603005,-2.41183614493,-4.11090033305
-4.80568777467,-8.68709239381,-0.12535845083,-2.85796299899
-2.07991808392,-5.44230875758,-2.65888075673,-4.24502566494
-2.47414839315,3.82247487867,-3.59240306262,1.07791166911
4.73162129761,5.7972585149,-1.43592536852,-0.739150996844
-5.36260901163,-7.40795784886,-4.80944767442,-8.49621366279
-5.33137718023,-2.87097020348,-0.0501126453491,-7.01529069767
-2.09071941951,1.57782091194,2.83035910891,-0.638802359908
-2.1500616588,1.71661202735,-0.829169136836,-0.982314022151
4.51059610191,0.37540314276,-1.05869738258,-1.33582568439
-5.20874613737,4.07419425817,5.56177437168,-0.519337346632
4.65191162334,-8.55701462643,-0.0677538740601,-6.52284900887
0.78256938405,-0.588223511018,-1.38728211981,-1.63636067111
1.39322714476,16.8005676044,4.13318963445,7.51012766664
11.5438849055,9.89935871981,2.16366138871,6.8266160044
5.44454266618,-0.631850164791,6.25413314297,-0.0668956578393
2.2452004269,-2.45305904938,6.21460489722,-0.0404073200807
4.43585818761,7.35573206603,5.97507665148,6.81608101768
3.20651594832,4.99452318143,1.43554840574,4.14256935544
1.64717370903,7.25331429685,1.45602016,2.9690576932
-1.59216853025,-2.54789458775,0.926491914255,-7.30445396905
-0.201510769541,-8.29910347234,-1.04303633149,-8.52796563129
-4.40085300883,-1.18031235693,1.16743542277,-3.75147729353
5.16980475188,6.20847875848,5.25790717703,-0.374988955771
4.99046251259,5.35726987389,3.67837893129,2.43149938199
7.32112027331,1.2560609893,0.458850685543,4.44798771974
2.09177803402,-4.53514789529,-1.7806775602,1.8444760575
3.97243579473,7.09364322012,0.459794194059,6.28096439526
3.97309355545,-0.157565664471,-2.68973405168,3.71745273302
5.45375131616,-5.45877454906,-5.61926229743,-0.426058929221
4.60440907687,-1.43998343365,-0.968790543171,1.42042940854
5.14506683758,1.02880768176,0.751681211084,4.3069177463
9.66572459829,-3.13240120283,-0.0978470346527,3.69340608406
12.546382359,1.46638991257,-1.5673752804,2.57989442181
8.05704011972,1.27518102799,-3.77690352614,0.246382759573
5.95769788043,-7.64602785661,-4.13643177188,-1.01712890267
12.0683556411,-9.26723674119,-3.12596001763,0.21935943509
-7.58098659815,-6.43844562579,-2.77548826337,1.52584777285
5.69967116257,0.800345489617,-3.41501650911,5.24233611061
-3.48967107672,12.549136605,-2.61454475485,9.05882444837
-5.17901331601,-4.09207227956,-5.36407300059,5.57531278612
-5.5183555553,-6.06328116415,-3.08360124634,4.04180112388
3.02230220541,-2.38449004875,-5.18312949208,1.81828946164
-2.55704003388,1.47430106666,-3.16265773782,2.1447777994
-0.0963822731646,2.63309218208,-2.23218598356,6.08126613716
2.87427548755,1.64188329748,-1.17171422931,6.65775447492
-6.73506675174,-7.9593255871,-5.15124247505,-1.31575718732
-2.66440899103,-3.4905344717,-2.25077072079,0.640731150435
-3.30375123031,-1.76174335629,0.529701033465,-0.202780511807
-7.4230934696,-3.49295224088,-3.62982721228,-1.06629217405
-2.48243570889,0.0558388745267,-1.72935545802,-0.879803836291
-8.73177794817,-8.30537001006,-4.62888370376,-5.22331549853
-5.15112018746,-8.91657889466,-5.32841194951,-7.22682716077
-5.53046242675,-0.697787779245,-0.427940195248,-2.35033882301
-0.899804666042,0.391003336168,-1.45746844099,0.346149514744
-3.17914690533,-7.29020554842,-3.48699668673,-4.6973621475
1.00151085539,-3.07141443301,-0.936524932473,1.54912619026
2.7921686161,4.5673766824,-0.916053178218,6.16561452802
-3.64717362319,7.7561677978,-2.25558142396,3.17210286578
-4.44651586248,8.73495891321,-0.805109669702,4.83859120354
0.544141898237,-3.28624997138,-3.88463791545,0.0450795412962
5.99479965895,-7.79745885597,0.405833838813,-4.32843212094
-5.13454258034,0.461332259438,-0.713694406928,-0.831943783187
4.99611518037,-0.0898766251557,-7.48322265267,2.57454455457
0.616772941081,1.33891449026,-2.23275089842,1.04103289233
0.467430701792,-1.42229439434,2.35772085584,-2.50247876991
-4.0019115375,-0.603503278922,1.3981926101,0.324009567848
1.56874622322,0.915287836484,0.388664364356,-3.97950209439
3.19940398393,4.68407895189,1.92913611862,-2.34301375664
2.93006174464,3.3728700673,3.74960787287,0.623474581123
-5.31928049464,-5.59833881729,-0.259920372868,-5.14003708112
1.46137726607,-8.05954770188,-0.809448618613,-8.88354874336
-9.44796497322,-1.79075658647,-1.32897686436,-7.7970604056
-10.9573072125,-7.47196547106,-6.9585051101,-14.1605720678
-11.8066494518,-9.06317435565,-5.76803335584,-9.86408373008
-0.465991691082,1.27561675975,0.282438398415,-0.527595392325
0.78466606963,-3.64559212483,5.60291015268,-7.56110705457
-9.22467616966,-2.29680100943,2.50338190693,-7.41461871681
-9.60401840894,-1.09800989401,-0.206146338809,-8.92813037905
0.946639351765,-0.679218778605,-1.07567458455,-6.48164204129
-8.80270288752,-1.4704276632,-0.715202830295,-4.84515370353
-7.39204512681,-7.15163654779,0.785268923963,-5.83866536577
-5.5313873661,0.507154567618,4.58574067822,-0.172177028016
1.39927039461,8.29594568304,7.35621243247,4.17431130974
-5.77007184467,7.39473679844,2.84668418674,-1.8992003525
-6.07941408396,0.243527913844,-1.76284405901,-1.10271201474
-1.31875632325,-6.25768097074,2.77762769525,-5.63622367698
-4.55809856253,-2.32888985534,5.01809944951,-5.37973533922
-6.33744080182,16.5999012601,8.92857120376,4.77675299854
-5.24678304111,2.41869237549,1.54904295802,1.05324133629
-1.0161252804,-8.72251650911,2.13951471228,-4.14027032595
-3.94546751969,-7.27372539369,7.00998646654,-3.30378198819
-5.01480975898,-0.174934278286,4.3904582208,0.19270634957
2.14584800174,6.39385683712,4.22092997505,3.12919468733
-6.88349423755,0.282647952532,0.37140172931,-0.794316974912
-9.74283647684,-0.398560932059,4.93187348357,-1.01782863715
-3.26217871613,5.72023018335,10.3223452378,4.4286597006
-1.43152095541,8.03902129875,8.17281699208,4.61514803836
-0.210863194705,3.21781241417,3.84328874634,1.45163637612
4.18979456601,10.2566035296,3.5937605006,7.93812471388
5.85045232673,7.98539464498,4.87423225486,6.29461305164
-2.03888991257,2.7041857604,0.824704009112,2.0611013894
-2.84823215185,0.322976875803,-1.85482423663,2.22758972716
-2.16757439114,9.26176799121,-0.0143524823725,2.86407806491
-0.916916630427,5.26055910662,-0.983880728116,-1.30943359733
-0.376258869714,1.50935022203,1.63659102614,-0.982945259568
-6.995601109,-2.81185866256,3.0670627804,-1.98645692181
0.525056651706,0.866932452846,-0.0824654653406,-2.10996858405
-7.59428558758,3.70572356827,0.0580062889167,-1.56348024629
2.42637217313,9.77451468367,1.57847804317,2.80300809147
-0.272970066158,-8.82669420093,-0.371050202571,-3.66050357078
-2.51231230544,-5.68790308551,-0.790578448312,-2.36401523302
-12.9916545447,-0.799111970104,-0.750106694057,-3.10752689526
-4.87099678402,7.83967914531,1.11036506021,1.9289614425
-2.32033902331,-1.21152973929,-1.25916318554,-2.42455021974
-6.18968126259,-7.59273862387,-0.808691431281,-3.25806188198
-6.29902350188,-0.943947508465,2.05178032297,1.03842645578
4.05163425883,2.89484360694,0.952252077233,5.94491479353
7.70229201954,3.60363472236,1.25272383149,5.26140313129
4.46294978025,5.52242583776,-0.026804414254,1.53789146905
-6.24639245903,-4.31878304682,-3.10633266,-1.82562019319
-3.13573469832,-2.04999193142,-2.90586090574,-0.569131855431
9.58492306239,-2.12120081601,-2.36538915148,4.17735648233
4.11558082311,-0.9524097006,0.585082602778,4.48384482009
11.4062385838,2.32638141481,-3.21444564296,3.17033315784
8.20689634453,-5.09482746978,-2.27397388871,-1.3331785044
8.36755410524,-7.49603635437,-2.29350213445,-2.41669016664
15.808211866,-4.88724523897,-0.623030380193,2.47979817112
11.2088696267,1.69154587644,-2.20255862593,5.50628650888
10.9495273874,5.22033699185,-4.89208687167,4.96277484664
2.97018514809,-1.20087189274,-2.89161511742,0.459263184397
4.7108429088,0.61791922267,-0.481143363162,1.87575152216
8.29150066951,-6.62328966193,-4.7106716089,-2.11776014009
17.7221584302,1.16550145349,-6.40019985465,5.26872819767
-8.07239825579,-5.20136627906,-8.05628997094,-4.61332485465
-6.99068233838,-8.40844737113,-4.31901448911,-12.0580338136
-9.58896642096,-11.5155284632,-5.90173900728,-7.86274277261
-1.75725050355,-8.19260955524,-6.27446352546,-0.557451731594
0.664465413865,-2.16969064731,-4.78718804363,1.81783930943
0.286181331277,0.713228260633,-5.4099125618,4.16313035044
-1.41210275131,-5.11385283143,-6.03263707998,-1.81157860854
1.38961316611,-5.29093392349,-5.79536159816,-1.00628756752
6.96132908353,-0.968015015555,-5.32808611633,1.2090034735
6.58304500094,1.35490389238,-3.6608106345,-2.30570548549
3.99476091834,7.51782280032,-1.89353515268,4.90958555554
9.51647683576,0.690741708255,-5.05625967085,5.62487659655
1.96819275318,-2.66633938381,-1.53898418902,0.350167637571
6.12990867059,-0.213420475862,-0.441708707203,0.435458678588
3.401624588,5.60949843207,-2.15443322537,4.43074971961
-5.19665949458,7.34241734001,-0.15715774355,5.75604076063
-1.70494357716,-7.48466375205,-2.58988226172,-3.32866819836
10.3967723402,-6.89174484411,-0.432606779897,-1.74337715734
6.81848825766,-0.56882593617,3.17466870193,0.58191388368
7.18020417508,6.04409297177,2.04194418375,3.3572049247
4.44192009249,5.2970118797,1.83921966558,0.962495965716
3.32363600991,2.28993078764,-0.323504852593,1.26778700673
3.83535192732,-7.25715030442,2.79377062923,1.74307804775
3.99706784474,-3.06423139649,2.64104611105,-0.12163091123
2.01878376215,3.07868751145,2.42832159288,1.75366012979
-0.589500320435,7.27160641939,0.645597074708,1.88895117081
-1.88778440302,-8.40547467268,-1.40712744347,-5.08575778818
-6.48606848561,-10.1325557647,0.500148038362,-8.37046674716
-6.55435256819,-3.16963685679,2.34742352019,-4.33517570614
-8.24263665078,-0.42671794886,2.08469900201,-2.11988466512
-2.47092073337,0.886200959081,3.54197448384,-3.0345936241
0.880795184043,-3.70088013299,0.549249965665,-3.34930258308
-3.82748889854,-3.47796122505,2.61652544749,-2.30401154207
-12.5657729811,2.74495768289,2.55380092932,-1.60872050105
-7.1740570637,3.33787659083,-1.81892358886,-3.80342946003
-7.93234114629,-4.17920450123,-3.08164810704,-8.69813841901
-11.1206252289,-13.6762855933,-3.50437262521,-9.532847378
-4.81890931146,-14.9833666854,-1.64709714338,-8.85755633698
-8.00719339406,-7.86044777742,-0.379821661558,-10.832265296
-3.24547747664,-5.18752886948,-3.21254617973,-6.67697425494
-2.94376155923,2.13539003846,-1.5952706979,-3.34168321392
-5.29204564181,-3.8116910536,1.87200478392,-5.7363921729
-6.52032972439,-2.47877214567,3.19928026574,-3.57110113189
0.531386193019,-2.82585323773,-0.393444252426,-2.45581009087
-0.87689788956,-0.73293432979,-1.1061687706,-1.41051904985
1.69481802785,4.44998457815,1.02110671122,0.134771991168
-1.80346605474,7.59290348609,6.66838219305,-2.12993696781
-3.86175013732,-8.46417760598,0.255657674876,-8.2046459268
-6.11003421991,-2.23125869804,-0.357066843299,-1.23935488578
0.481681697507,5.3116602099,-0.469791361473,0.63593615524
-2.14660238508,2.17457911784,2.46748412035,-7.62877280374
-8.31488646766,-6.12250197423,1.55475960218,-7.41348176272
-7.30317055026,-7.32958306629,-1.387964916,-7.2781907217
-5.38145463284,-0.636664158352,-0.28068943417,-3.84289968069
-2.46973871542,6.93625474959,1.08658604766,3.40239136033
5.11197720199,8.15917365753,1.04386152948,2.81768240135
-5.4963068806,5.17209256547,-1.62886298869,2.63297344237
-1.04459096318,10.6450114734,6.93841249313,3.86826448338
-5.00287504576,4.68793038134,6.45568797496,-0.496444475597
3.36884087165,5.62084928928,3.20296345678,2.74884656542
5.54055678906,9.64376819722,3.74023893861,5.67413760644
-4.02772729353,3.93668710515,4.46751442043,0.859428647458
-5.13601137611,0.929606013095,2.39478990226,-0.345280311525
-3.97429545869,8.23252492103,2.71206538409,4.21001072949
-4.21257954128,8.55544382897,2.11934086591,3.40530177051
-3.92086362386,4.30836273691,2.78661634774,-1.75940718847
7.46085229355,1.53128164485,3.49389182957,1.23588385255
1.07256821096,0.274200552783,6.78116731139,1.25117489356
-0.415715871626,8.70711946072,6.00844279321,2.23646593458
6.15600004579,15.5200383687,5.12571827504,8.0217569756
10.5377159632,7.5729572766,-1.64700624313,12.0670480166
7.18943188062,8.97587618454,7.71026923869,12.9123390576
2.14114779804,-0.281204907529,7.12754472052,2.78763009866
8.78286371545,1.45171400041,1.90482020234,2.74292113967
8.50457963286,6.74463290835,1.71209568417,5.84821218069
10.9662955503,11.5875518163,3.709371166,12.4335032217
3.81801146769,2.26047072423,-0.173353352176,8.81879426273
5.9197273851,4.76338963216,2.22392212965,9.23408530375
9.45144330252,8.8363085401,4.40119761147,10.6893763448
10.6031592199,17.979227448,5.0484730933,14.7546673858
0.974875137348,-1.83785364402,0.495748575126,1.1399584268
-1.15340894524,-2.91493473608,1.13302405695,2.43524946782
2.56830697217,-1.53201582815,-1.00970046122,5.92054050884
5.16002288959,4.09090307979,-1.9424249794,8.01583154986
10.621738807,8.37382198773,7.61485050242,9.25112259087
7.04345472442,8.50674089566,2.88212598426,13.9664136319
7.58517064183,-0.740340196397,1.52940146608,6.99170467291
7.07688655925,-4.43742128846,0.836676947903,0.506995713928
5.11860247666,1.92549761948,2.29395242973,8.72228675495
9.65031839407,0.608416527415,-0.558772088443,4.81757779596
4.61203431149,3.48133543535,1.54850339338,4.38286883698
-1.37624977109,6.2042543433,5.51577887521,5.438159878
2.51546614632,-4.31282674877,0.0230543570324,1.70345091902
5.80718206373,1.14009215917,-0.059670161143,5.58874196004
-2.08110201885,4.5230110671,0.477605320688,6.23403300105
4.67061389856,1.43592997504,0.914880802513,2.83932404207
0.182329815972,2.27884888299,2.30215628434,1.62461508309
6.89404573339,-3.47823220908,-0.610568233835,1.64990612411
5.33576165081,5.50468669886,0.016707247989,9.53519716513
8.08747756822,17.0776056068,7.31398272981,12.4404882061
7.92919348564,2.32052451473,1.22125821164,8.39577924716
7.36090940305,1.88344342267,-1.35146630653,7.20107028818
2.71262532046,-0.603637669388,-0.984190824707,3.2463613292
0.924341237871,-2.82071876145,1.23308465712,1.70165237022
4.73605715529,3.29220014648,-2.86963986106,4.87694341123
4.82777307271,0.51511905442,-6.48236437923,3.24223445225
-1.09051100988,-5.84196203763,1.52491110259,-2.26247450673
-2.60879509246,-5.37904312969,2.58218658442,0.712816534289
5.73292082495,1.47387577824,3.81946206625,1.71810757531
3.05463674236,3.45679468618,0.896737548072,1.71339861633
-2.15364734023,4.29971359411,0.8840130299,-0.481310342655
-4.49193142281,0.872632502047,-3.17871148828,-1.55601930164
-5.7902155054,-14.89444859,-9.70143600645,-8.91072826062
-10.808499588,-9.42152968207,-0.934160524626,-8.3554372196
-3.38678367057,-5.13861077413,0.7931149572,-5.13014617858
-10.6650677532,-4.7656918662,-2.76960956098,-6.25485513757
-10.3333518357,-5.06277295826,-1.45233407915,-5.62956409655
-7.53163591833,-4.25985405032,-0.99505859732,-5.92427305553
-11.5899200009,-3.06693514238,-2.2677831155,-6.72898201451
-7.20820408349,-5.39401623444,-5.30050763367,-8.51369097349
-5.17648816608,-6.90109732651,-7.81323215184,-11.1983999325
-7.85477224867,-9.05817841857,-6.66595667002,-15.4531088915
-6.79305633125,-10.6252595106,-6.65868118819,-12.7678178504
-3.57134041384,-7.59234060269,-3.66140570637,-8.70252680942
3.34037550357,-6.52942169475,-5.53413022454,-9.8472357684
-1.93790857901,-0.256502786819,-5.16685474272,-6.38194472738
-7.9661926616,-10.3235838789,-7.03957926089,-13.4466536864
-6.17447674419,-9.83066497093,-7.59230377906,-13.2713626453
0.0482412790661,-2.97684593021,0.828382994183,-1.8486300872
-0.704559518628,-4.18940667345,-0.487652072654,-3.6459019067
0.512639683664,-1.64196741667,-0.643687139494,0.116826273812
6.07983888596,0.285471840107,0.680277793668,1.87955445432
-9.37296191174,-10.3470889031,0.104242726829,-3.98771736517
1.45423729056,-0.919649646341,-0.391792340004,0.695010815332
1.75143649286,0.447789610436,-4.40782740684,-1.11226100416
-5.95136430485,-4.57477113279,-3.54386247368,-5.03953282365
-5.54416510254,-4.75733187602,-0.629897540519,-1.83680464314
-5.30696590024,-7.14989261924,1.00406739265,-1.83407646264
-4.95976669795,-0.552453362463,1.26803232581,2.53865171787
-1.67256749565,5.59498589431,-1.11800274103,7.50137989838
6.31463170665,-2.28757484892,0.915962192128,4.80410807888
1.54183090894,-4.03013559214,1.42992712529,0.83683625939
1.28903011124,-4.45269633536,-0.936107941543,-0.230435560101
3.19622931354,-2.53525707859,1.74785699162,-0.607707379593
0.653428515841,4.13218217818,2.66182192478,1.12502080091
2.00062771814,5.95962143497,3.86578685794,3.49774898142
-0.0921730795671,5.94706069173,3.5597517911,5.41047716193
-1.87497387727,-0.42550005149,2.15371672427,0.00320534243474
5.31222532503,7.73193920529,2.16768165743,6.26593352294
1.91942452732,8.85937846206,-2.7883534094,8.59866170345
9.66662372963,7.04681771884,2.33561152375,4.99138988396
4.15382293193,-5.60574302439,2.10957645692,-2.55588193554
-2.11897786578,-6.38830376761,1.95354139008,-0.903153755031
-4.17177866348,3.24913548916,-1.71249367675,3.39957442548
2.07542053882,3.49657474594,-1.92852874359,-0.147697394015
7.65261974112,4.72401400271,0.615436189568,2.80503078649
5.15981894342,0.391453259486,0.14940112273,1.427758967
-6.34298185429,-2.57110748374,0.263366055893,-1.35951285249
-2.24578265199,-1.05366822696,-0.362669010945,0.793215328014
1.45141655031,1.09377102981,-1.67870407778,1.04594350852
-4.04138424739,3.15121028659,-0.96473914462,1.81867168903
-7.25418504509,-1.27135045663,2.51922578854,-3.00860013046
-0.466985842795,-8.58391119986,-1.74680927829,-6.08587194996
-13.8997866405,-9.54647194309,-4.38284434513,-8.06314376945
-3.1825874382,-2.49903268631,-2.65887941197,-5.02041558894
-7.4453882359,5.20840657046,1.0050855212,1.91231259156
-1.8481890336,-8.75415417276,-1.36094954564,-4.93495922793
-0.87098983131,-6.96671491599,-1.87698461248,-0.462231047422
-3.623790629,-6.26927565921,-4.11301967932,-1.59950286691
-2.66659142671,-2.60183640244,-5.17905474615,-0.716774686407
-1.04939222441,-0.194397145664,-2.20508981299,-2.0740465059
-10.1421930221,-5.12695788889,2.50887512017,-8.08131832539
-10.2249938198,-5.07951863211,-1.30715994667,-6.23859014489
-3.86779461752,-8.16207937534,-4.84319501351,-4.97586196438
-1.89059541522,0.0153598814359,-3.71923008034,-0.953133783873
-0.673396212915,3.08279913822,-1.88526514718,0.289594396636
-0.0361970106242,1.79023839498,-0.791300214019,-2.65767742286
-9.63899780832,-10.6623223482,-4.29733528085,-9.78494924235
-0.451798606031,-4.44488309146,0.436629652308,-5.46222106184
7.98540059628,7.45255616531,1.11059458547,-0.179492881336
2.51259979857,2.54999542209,0.104559518633,-1.53676470083
-1.61020099913,-0.132565321132,-0.341475548208,-4.23403652032
1.14699820317,-0.0851260643612,1.02248938496,-1.63130833981
1.53419740547,6.94231319241,3.39645431812,4.21141984069
10.1313966078,8.45975244919,2.05041925128,3.7441480212
6.13859581006,4.21719170597,-1.83561581555,-0.343123798293
4.46579501236,0.70463096274,-1.8516508824,-2.25039561778
3.42299421466,6.68207021951,4.31231405077,1.42233256272
5.94019341695,2.45950947629,1.67627898393,0.665060743229
5.49739261925,10.2569487331,3.40024391709,0.427788923736
5.08459182155,8.65438798984,1.59420885026,3.45051710424
2.38179102385,3.37182724661,-0.981826216583,-1.01675471525
8.22899022615,-0.870733496609,-2.04786128342,-4.91402653474
5.61618942845,-1.78329423984,3.78610364975,-3.68129835423
11.2133886307,2.35414501694,2.73006858291,1.53142982627
20.410587833,9.82158427372,-1.53596648393,10.4141580068
13.5177870353,-9.24097646951,-3.50200155077,-0.683113812715
-3.86501376236,-7.72353721273,-1.73803661761,-6.78038563221
0.0921854399348,9.84390204404,-1.33407168444,6.3623425483
-12.0806153578,2.70134130081,1.77989324872,-2.23492927119
-4.35341615546,6.00878055759,0.883858181882,-0.702201090684
5.08378304683,0.436219814364,-3.02217688496,2.65052708982
9.38098224912,-5.32634092886,-5.8382119518,4.07325527033
7.93818145142,-0.358901672087,-4.40424701863,6.55598345084
4.52538065373,6.25853758469,0.489717914534,7.94871163134
7.01257985603,5.67597684147,-0.406317152305,9.30143981185
4.60977905832,-2.52658390176,-0.782352219147,-0.06583200764
1.91697826062,-3.39914464499,0.581612714017,-0.0731038271351
6.99417746292,8.40829461179,4.24557764718,7.43962435337
9.60137666521,6.26573386856,3.50954258034,6.60235253388
0.648575867512,9.39317312534,4.00350751351,5.50508071439
1.90577506981,2.44061238212,2.66747244667,2.94780889489
-1.68702572789,3.29805163889,1.92143737983,-1.9694629246
-4.1598265256,5.89549089567,2.26540231299,1.82326525591
-7.01262732329,4.71293015244,2.30936724616,-0.0240065635844
-9.575428121,4.26036940922,1.68333217932,-1.47127838308
-9.9182289187,-1.41219133401,-0.572702887519,-6.00855020257
-10.4110297164,-7.53475207723,-0.0587379543576,-6.93582202206
-2.7038305141,-0.287312820452,2.44522697881,-3.22309384156
-0.216631311807,8.72012643632,3.38919191197,1.36963433895
-1.07943210951,5.9475656931,3.07315684513,2.58236251946
-2.95223290721,-3.37499505013,1.68712177829,-3.64490930003
-5.20503370491,-3.65755579335,-0.00891328854414,-2.99218111953
-10.7778345026,-1.22011653658,0.37505164462,-4.41945293902
-7.06063530032,3.3373227202,-1.44098342222,-0.0967247585104
-1.30343609802,4.27476197697,1.58298151095,2.32600342199
-1.40623689572,3.40220123374,5.0969464441,4.5287316025
10.6209623066,7.62964049052,7.46091137727,10.391459783
3.07816150889,3.4070797473,2.92487631043,5.96418796352
2.83536071118,4.79451900407,1.2288412436,4.11691614402
-1.28744008653,4.62195826085,1.90280617676,5.30964432453
0.859759115767,-0.650602482383,1.27677110992,-2.97762749496
-4.26304168193,-3.8031632256,1.50073604308,-4.57489931446
-4.59584247963,-4.20572396883,0.534700976244,-5.33217113395
1.07135672266,8.76171528795,3.46866590941,1.34055704656
-2.54144407503,2.54915454472,2.35263084257,4.65328522707
2.35575512727,2.79659380149,1.77659577573,7.56601340757
-0.0470456704425,-3.23596694173,1.75056070889,2.85874158808
-0.619846468144,-3.00852768496,-2.96547435794,-1.49853023141
1.10735273416,-2.34108842818,-0.911509424779,-5.2258020509
-7.19544806355,-6.98364917141,-2.20754449162,-6.3530738704
-8.41824886125,-7.25620991463,-1.15357955845,-3.58034568989
-11.4710496589,-4.81877065785,-3.33961462529,-2.76761750938
-4.40385045665,-6.49133140108,-3.29564969213,-5.12488932888
-6.55665125435,2.3661078557,-1.44168475897,-4.07216114837
-5.60945205206,6.43354711247,-0.857719825806,0.79056703214
0.0777471502442,-2.19901363076,0.686245107358,0.613295212648
-4.65505364746,-6.24157437398,-0.359789959482,-2.53397660685
-0.107854445159,-7.33413511721,-3.17582502632,-1.43124842634
3.93934475714,-4.55669586042,-3.38186009316,1.80147975417
0.0665439594377,-7.25925660365,-5.49789515999,-2.66579206532
2.82374316173,-1.27181734687,-4.78393022683,-0.493063884818
1.44094236403,-9.8543780901,-2.76996529367,-2.79033570431
10.1481415663,-8.44693883333,-2.16600036051,-0.817607523803
12.7653407686,-5.82949957655,-1.00203542734,0.825120656704
2.42253997092,0.567939680222,0.651929505821,2.70784883721
3.70403619199,11.220760556,1.79848806713,6.02910962497
0.486045194833,-1.08507891466,-0.638079176944,-1.68697200689
7.09805419769,6.34908161468,3.13535357899,5.10694636125
