4.34636264537,6.48858284886,1.91438953488,9.34462572675
6.62987711158,3.98526732171,0.539034975274,7.77117197514
3.90339157779,2.47195179456,1.06368041567,2.52771822354
-0.163093955991,10.0286362674,1.18832585607,5.19426447194
-2.96957948978,6.70532074026,0.552971296462,2.64081072034
0.933934976434,4.33200521312,1.97761673686,3.07735696873
-3.32255055735,-1.79131031403,1.03226217725,-1.69609678287
-3.99903609113,1.43537415882,0.906907617647,0.84044946553
-0.595521624913,13.6420586317,4.41155305804,10.3969957139
3.87799284129,12.0087431045,8.42619849844,14.7935419623
-14.3584926925,-4.99457242262,1.88084393883,-4.03991178928
-14.7349782263,-9.19788794977,-3.60451062077,-10.4233655409
-3.67146376005,-3.25120347691,-1.39986518037,-2.69681929248
2.30205070615,-1.83451900406,2.52478026002,1.44972695592
8.87556517237,3.66216546879,3.20942570042,3.76627320431
5.14907963858,-6.21115005836,2.55407114081,-2.45718054729
0.502594104801,-11.7144655855,1.69871658121,-3.72063429889
5.30610857101,-0.327781112646,0.143362021605,-0.354088050493
6.49962303723,1.0589033602,-1.001992538,-0.567541802095
2.12313750345,4.01558783306,-0.817347097605,5.0090044463
8.08665196966,0.192272305911,-0.0627016572089,0.725550694699
11.0401664359,1.44895677877,4.26194378319,2.3720969431
6.75368090209,1.98564125162,4.05658922358,2.7386431915
3.11719536831,8.85232572447,4.98123466398,5.63518943989
10.9707098345,10.6390101973,4.18588010437,8.22173568829
14.8742243007,2.28569467018,1.16052554477,2.14828193669
1.66773876695,-5.64762085697,-0.434829014837,-4.45517181491
-2.16874676683,-5.78093638412,-0.760183574441,-4.25862556652
0.204767699375,-2.17425191127,-1.70553813405,-3.49207931812
4.7182821656,2.63243256159,0.47910730635,-2.71553306972
0.141796631811,-3.98088296556,0.133752746746,-1.67898682132
3.22531109802,0.465801507286,0.0783981871427,4.49755942708
7.23882556424,3.31248598015,-0.396956372464,4.42410567547
1.89234003046,4.629170453,-2.89231093207,2.49065192387
3.68585449667,9.70585492585,-2.78766549167,6.83719817227
6.56936896288,-1.2174606013,-4.61302005128,0.973744420666
4.2028834291,-9.35077612845,-4.68837461088,-5.40970933094
4.76639789531,-7.67409165559,-3.82372917048,-4.12316308254
-2.99008763847,-6.77740718274,-3.42908373009,-2.58661683414
0.503426827745,-2.26072270989,-3.70443828969,-1.10007058574
0.256941293956,-8.27403823703,-2.6897928493,-4.51352433735
-1.47954423983,-7.39735376418,-0.125147408904,-1.97697808895
1.29397022639,2.14933070867,0.599498031494,1.54956815945
-3.3325153074,-0.913984818471,-2.91585652811,-2.93388559215
1.72099915882,1.44269965438,-0.161211087716,-0.377339343755
-7.23548637497,1.48938412723,1.97343435268,0.469206904642
-9.44197190875,-6.53393139991,-0.171920206925,-0.414246846959
-6.35845744254,-6.82724692706,-1.10727476653,-4.89770059856
-14.5849429763,-2.02056245421,-1.11262932613,-5.60115435016
-4.54142851011,-2.12387798136,-2.88798388574,-2.99460810177
-1.76791404389,-3.5471935085,-0.503338445344,-2.91806185337
-11.4443995777,-13.5005090356,-3.32869300495,-13.141515605
-9.07088511147,-9.5138245628,-4.19404756455,-12.2549693566
-10.4973706453,2.69285991005,-1.80940212416,-6.07842310818
-9.85385617903,-0.770455617094,-2.75475668376,-4.36187685978
-3.72034171283,-1.86377114424,-2.43011124337,-1.78533061138
-9.70682724661,-8.22708667139,-3.28546580297,-2.97878436298
-3.69331278039,-9.16040219854,-4.57082036257,-7.06223811458
-1.98979831417,-2.63371772568,-4.67617492218,-6.97569186619
5.01371615204,-0.0670332528243,-5.60152948178,-2.22914561779
6.12723061825,-4.26034877998,-3.48688404139,1.82740063061
-7.45925491553,-7.52366430713,-2.44223860099,-3.90605312099
-2.91574044932,-6.73697983427,-4.3775931606,-3.6695068726
-7.9622259831,-1.37029536142,-4.0729477202,-3.8329606242
-7.89871151689,5.13638911143,-2.1983022798,-1.6964143758
-5.25519705067,-12.1369264157,-3.53365683941,-8.3298681274
-8.74168258446,-9.48024194286,-1.36901139901,-6.373321879
-6.25816811824,1.61644252999,1.03563404138,2.33322436939
-1.44465365203,3.36312700285,-0.0697205182223,4.15977061779
4.40886081419,4.1198114757,-0.595075077828,6.18631686619
0.922375280403,3.54649594855,1.29957036257,1.27286311459
-3.20411025338,3.07318042141,0.324215802964,-0.660590637016
2.29940421283,1.97986489426,-2.41113875664,-0.354044388619
2.39291867905,6.43654936711,-0.206493316246,-0.337498140221
-0.733566854738,4.84323383996,-0.351847875851,-0.620951891823
-3.55005238853,6.16991831281,3.55279756455,4.75559435657
-1.11653792231,-0.133397214333,4.67744300494,4.74214060497
-11.3930234561,-4.81671274149,-0.227911554664,-3.82131314663
0.75049101012,1.63997173137,1.28673388573,-0.994766898233
0.414005476334,9.64665620423,4.92137932613,4.80177935016
0.977519942549,-3.67665932292,-0.903975233477,-1.62167440144
2.70103440877,-3.48997485007,4.30067020692,1.20487184696
3.15454887498,6.02670962278,5.85531564732,0.661418095358
-4.8719366588,-5.14660590436,-5.15003891229,-5.76203565624
-3.42842219259,2.64007856849,-2.32539347189,3.07451059215
-4.97490772637,-1.00323695866,0.349251968502,-6.63894315945
-4.77139326016,-2.00655248581,1.1238974089,-6.35239691105
-0.787878793948,1.86013198705,1.28854284929,-6.18585066265
-5.81436432773,7.5868164599,0.813188289689,0.0106955857445
4.24915013849,17.1135009328,6.52783373008,5.70724183414
4.7626646047,3.5001854056,2.56247917048,5.71378808254
4.20617907091,9.91686987846,5.78712461087,8.34033433094
3.62969353713,5.34355435131,-0.0782299487291,1.95688057934
-1.73679199666,-3.75976117583,-0.643584508334,-0.866573172268
1.73672246956,3.17692329702,2.27106093206,1.51997307613
4.22023693578,17.4236077699,9.68570637246,7.87651932453
-0.946248598011,1.96029224272,2.86035181285,2.14306557293
1.0772658682,-5.30302328442,0.254997253247,-0.330388178676
2.77078033442,5.35366118843,0.489642693643,2.32615806972
-1.31570519937,0.490345661281,0.994288134039,5.53270431812
1.45780926685,-2.84296986587,2.57893357443,0.399250566517
3.79132373306,-4.27628539301,2.45357901483,-0.614203185085
1.62483819928,9.86039907984,6.75822445523,5.68234306331
9.78835266549,14.1070835527,7.08286989562,5.77888931171
4.00186713171,5.37376802554,1.50751533602,1.90543556011
-1.54461840208,-8.3095475016,-5.06783922359,-3.15801819149
-1.56110393586,-17.8228630287,-5.86319378319,-8.4914719431
4.21241053035,-12.6361785559,-3.7085483428,-3.8249256947
8.14592499657,-2.01949408304,-3.9139029024,-3.5883794463
1.37943946278,-6.50280961019,-7.54925746201,-8.5018331979
-1.12704607101,-10.5261251373,-6.39461202161,-9.49528694951
-0.903531604788,-12.1994406645,-2.91996658121,-9.09874070111
7.81998286143,-7.46275619163,-4.11532114082,0.47780554729
18.5034973276,16.5939282812,5.48932429958,14.7543517957
5.32701179385,8.08061275408,3.11396973997,5.19089804409
-2.24947373993,-5.82270277308,-5.30138481963,-7.78255570752
-0.925959273714,-7.58601830022,-2.67673937924,-2.33600945912
-0.772444807502,10.4806661726,7.48790606116,7.22053678928
-3.30893034129,14.0173506455,2.67255150156,5.84708303768
4.98458412493,16.5840351183,2.32719694195,9.25362928607
-5.05190140886,-4.59928040881,1.29184238234,-0.899824465529
-6.02838694264,-2.92259593595,2.39648782274,-2.03327821713
-1.17487247643,-1.9559114631,2.79113326314,-0.636731968733
4.38864198979,13.6007730097,2.69577870353,6.66981427966
3.002156456,4.6174574826,0.310424143929,3.76636052806
2.76567092221,-9.54585804454,-4.10493041568,0.87290677646
-3.63081461157,-12.0691735717,-4.02028497528,1.15945302486
-1.83730014535,-3.53248909884,1.37436046512,7.06599927326
-1.97947674419,6.59102834304,-9.05424418605,5.28113372093
2.12866339155,8.40965142031,-5.15787936619,10.5448941643
8.58680352728,10.7182744976,-1.14151454633,6.90865460767
6.27494366302,9.71689757486,-3.81514972647,1.97241505105
-2.64691620124,12.7155206521,0.0612150933866,8.41617549442
-4.46877606551,-2.40585627059,-3.86242008675,-1.43006406221
-6.40063592978,14.1127668067,-0.946055266897,4.72369638116
-3.45249579404,-11.448610116,-9.78969044704,-6.51254317547
-3.98435565831,-15.5299870388,-6.08332562718,-4.1587827321
-3.89621552257,5.74863603851,-6.00696080732,-4.90502228873
-3.27807538684,8.70725911579,-7.07059598746,5.93873815464
-1.5699352511,6.36588219307,-3.6842311676,2.59249859801
3.47820488464,-1.56549472966,-4.67786634774,3.22625904139
6.01634502038,0.923128347611,-2.94150152788,5.36001948476
7.12448515611,7.25175142489,1.75486329198,6.35377992813
13.0226252918,22.2803745022,4.36122811184,15.3875403715
14.8207654276,-6.21100242056,-8.9224070683,0.78130081487
5.22890556332,12.5276206567,2.17395775155,9.32506125824
5.64704569904,9.59624373399,5.69032257141,9.10882170161
6.12518583478,0.954866811262,1.81668739127,7.06258214498
7.88332597052,14.5934898885,4.66305221113,12.1863425884
5.06146610626,0.502112965813,-4.82058296901,6.70010303173
9.63960624198,25.9407360431,5.33578185085,8.3138634751
3.88774637772,7.34935912037,3.73214667071,12.2076239185
-0.814113486544,-1.99201780236,-3.20148850943,3.75138436184
5.90402664919,-3.97339472509,-1.69512368957,4.20514480521
12.0621667849,13.2652283522,4.24124113028,11.5889052486
8.75030692066,8.82385142946,5.45760595015,4.73266569195
6.1984470564,8.16247450674,3.56397077,0.966426135325
2.80658719214,-8.01890241598,3.71033558986,1.1701865787
1.43472732786,2.28972066129,-1.03329959028,9.13394702207
0.852867463604,-5.66165626144,-0.736934770419,0.987707465438
3.28100759934,9.14696681585,9.12943004944,3.03146790881
1.34914773508,-1.89441010688,5.3457948693,3.12522835218
2.20728787081,-24.4157870296,-6.12784031084,-8.44101120445
4.95542800654,-12.3171639523,-7.33147549098,-6.46725076108
1.59356814228,8.34145912495,4.48488932888,1.94650968229
5.07170827802,-4.50991779778,4.81125414874,2.53027012567
-2.67015158625,-9.93129472051,3.74761896859,-5.08596943096
-3.19201145052,-2.48267164323,1.38398378845,-1.81220898759
-0.493871314779,-6.07404856596,-1.34965139169,-5.79844854422
-0.0757311790439,4.54457451132,3.77671342817,-1.07468810085
1.92240895669,0.153197588596,-0.65692175197,3.84907234252
-6.39945090758,0.111820665872,9.29944306789,-3.60716721411
-9.26131077184,5.39044374314,7.09580788775,-4.58340677074
-12.8231706361,-11.4309331796,-7.26782729239,-11.5796463274
-12.6750305004,-5.8923101023,-1.60146247253,-9.26588588399
-8.72689036464,-4.22368702503,0.494902347325,-10.2221254406
-4.7587502289,-22.7950639478,-2.17873283282,-12.2483649973
-7.89061009316,-11.9464408705,3.97763198705,-10.2046045539
-11.7024699574,-5.95781779321,3.0939968069,-5.86084411051
-12.4243298217,-9.20919471594,3.02036162676,-8.44708366714
-9.23618968596,-6.12057163866,-0.233273553378,-9.97332322377
-12.9580495502,-8.50194856138,3.13309126648,-6.2395627804
-8.62990941449,2.94667451589,9.08945608634,-5.95580233702
-8.88176927876,-10.3247024068,-2.0741790938,-11.2320418937
-6.70362914302,-9.27607932956,-1.61781427394,-7.68828145028
-8.87548900728,-14.0274562523,2.99855054592,-13.3845210069
-11.3373488715,-8.748833175,7.47491536578,-4.03076056354
-11.4592087358,6.07978990227,5.83128018563,-1.33700012017
-8.81106860008,0.248412979541,6.22764500549,-0.993239676798
-3.00292846435,-12.7929639432,4.00400982535,-0.879479233427
-6.96478832861,16.0856591341,12.5503746452,-3.61571879006
-1.00664819287,-17.4757177886,-0.33326053493,-12.1919583467
-2.42850805714,10.6229052886,1.77310428493,-3.08819790331
-1.3103679214,-0.0984716340754,0.449469104789,-0.914437459942
1.24777221434,-2.25984855681,1.05583392465,-4.32067701657
-2.17408764994,2.74877452047,7.39219874451,-0.716916573199
-0.7359475142,-14.2126024023,-2.58143643563,-3.21315612983
-1.11780737846,-1.30397932498,2.07492838423,-4.45939568646
-6.17966724272,-2.48535624771,-5.12870679591,-10.1056352431
2.70847289301,13.3632668296,4.68765802394,3.28812520028
0.356613028744,-21.1581100932,-6.0959771562,-7.08811435634
2.49475316448,-15.6294870159,-3.03961233634,-5.38435391297
-0.377106699787,-13.8808639386,-3.74324751648,-8.6905934696
-4.31896656405,-4.36224086133,-0.75688269662,-4.92683302623
-3.01082642832,-6.94361778405,1.09948212324,-6.63307258286
-4.93268629258,-16.1949947068,-1.8141530569,-11.6993121395
1.02545384315,-33.1263716295,-11.997788237,-9.39555169612
-1.15640602112,-8.66774855222,-0.941423417184,-7.64179125275
-1.56826588538,16.280874525,2.17494140267,-2.01803080937
-2.60012574964,6.24949760232,1.20130622253,-7.984270366
0.228014386099,-16.7718793204,-0.662328957607,-10.5705099226
6.05615452182,-16.6232562431,-2.12596413775,-3.78674947926
3.36429465756,-2.49463316586,-1.17959931789,-0.802989035889
4.3624347933,-1.64601008857,-0.49323449803,-2.58922859252
8.74057492903,11.2126129887,0.0031303218293,-6.37546814915
0.478715064768,-19.018763934,-7.78050485831,-11.9617077058
-3.9231447995,-11.3201408568,-7.45414003845,-9.6679472624
-4.85500466376,-15.6715177795,-0.317775218593,-9.19418681903
-8.41686452802,10.4371052978,8.00858960127,2.90957362434
-2.40872439229,-8.17427162493,-2.28504557888,-6.22666593229
3.70941574344,-9.22564854765,-1.37868075901,-2.57290548892
3.69755587918,0.972974529628,3.48768406084,1.48085495445
-0.774303985083,16.6715976069,6.6440488807,7.83461539782
0.873836150648,4.29022068418,-1.92958629944,1.71837584119
-0.478023713615,-8.08115623855,-1.06322147958,3.85213628456
7.43011642212,-8.92253316128,1.85314334028,9.04589672794
2.24825655785,-0.513910084002,4.51950816014,-1.14034282869
3.04639669359,0.154712993273,-5.63412702,-4.15658238532
4.26453682932,7.63333607055,-3.36776220015,1.21717805805
3.59267696506,17.4719591478,0.0886026197149,7.53093850142
8.79081710079,23.8705822251,5.59496743957,13.5946989448
8.66895723653,-10.7507946976,-2.48866774057,3.34845938816
6.62709737226,4.22782837965,2.70769707929,2.86221983153
8.295237508,16.2664514569,6.07406189915,2.9359802749
8.02337764374,34.4650745342,5.30042671901,10.3597407183
3.95151777947,-0.916302388527,-4.96320846113,6.39350116165
2.5096579152,-3.56767931124,-0.126843641272,3.71726160502
-1.36220194906,-11.539056234,-4.99047882141,-2.55897795161
1.31593818668,4.9395668433,-3.19411400155,2.66478249176
2.53407832242,7.93818992058,-0.457749181694,0.168542935133
0.112218458147,0.906812997848,1.41861563817,7.7523033785
6.05035859388,-4.70456392488,0.324980458025,13.0360638219
1.36849872962,12.5840591524,5.37134527788,3.78982426525
0.706638865355,31.1426822297,4.28771009774,11.6435847086
-2.53522099891,11.7513053069,-0.9159250824,6.05734515199
-5.22708086318,-19.8600716158,-9.79956026254,-5.39889440464
-2.25894072744,11.4685514615,-2.32319544268,6.14486603873
-3.90080059171,6.64717453878,-1.39683062282,0.918626482101
-1.92266045597,3.11579761605,-2.32046580296,0.172386925472
1.20547967976,14.9044206933,0.885899016897,6.23614736884
-4.7463801845,-0.846956229398,-1.87773616324,5.76990781222
0.941759951238,-11.3883331521,-10.7613713434,-1.12633174441
-2.11009991304,3.45028992515,-3.72500652353,4.93742869896
-0.261959777294,6.76891300243,0.801358296332,4.41118914233
4.91618035844,20.4075360797,1.54772311619,13.7149495857
11.2843204942,-4.04384084303,-1.83591206395,12.7187100291
11.0419222384,3.05316860466,3.72146802325,-2.96394622093
10.9804229708,5.96202249475,-3.87341976058,-3.11169042414
12.2689237033,-14.5691236152,-6.16830754441,-8.24943462736
15.4874244358,29.7597302749,2.22680467176,9.03282116943
14.6759251682,4.778584165,2.59191688793,8.18507696622
10.4944259007,-18.4425619449,-6.7029708959,2.087332763
3.19292663317,-9.82370805483,-6.01785867973,-0.900411440212
7.54142736564,2.45514583525,-4.82274646356,4.78184435657
4.43992809811,17.3439997253,8.93236575261,8.71410015336
4.04842883057,3.87285361542,-2.48252203123,1.61635595015
1.63692956304,-20.8182924945,5.30259018495,-1.85138825307
-1.6145697045,-4.64943860441,-1.88229759889,-3.13913245628
-0.0660689720244,-4.18058471433,-3.35718538272,-5.39687665949
-1.86756823956,3.51826917576,-3.21207316655,-2.84462086271
5.18093249291,-15.3628769342,-7.69696095038,-9.90236506592
12.5194332254,0.985976955926,2.81815126579,4.69989073087
5.26793395784,-10.985169154,1.80326348196,3.54214652765
-3.08356530969,-9.19631526391,-6.10162430187,-6.11559767556
-9.96506457723,-5.32746137382,-5.7865120857,-8.09334187878
-10.5565638448,-2.02860748373,0.418600130468,-0.54108608199
-7.55806311229,-9.26975359365,-0.466287653364,-3.4388302852
-13.1595623798,1.53910029643,-4.62117543719,-3.85657448842
-9.19106164737,-6.95204581349,-9.30606322103,-5.15431869163
-4.82256091489,-2.49319192341,-5.92095100485,-6.06206289484
-2.69406018243,-13.8243380333,-9.14583878869,-9.74980709806
-3.51555944996,-4.24548414323,2.81927342748,-6.92755130127
-6.6370587175,9.23336974685,1.48438564365,-1.27529550449
-5.57855798503,1.46222363693,1.66949785982,0.7869602923
-8.88005725257,5.69107752702,1.54461007599,0.569216089087
-11.7715565201,-1.0700685829,2.84972229216,-1.63852811413
-8.66305578763,-19.8612146928,-0.985165491669,-11.3362723173
-8.34455505517,-12.2523608027,0.899946724499,-6.72401652055
-2.2960543227,-3.42350691264,4.35505894067,4.74823927623
-4.41755359023,7.53534697743,-1.89982884316,-7.09950492698
