6.43419331396,9.06803415698,3.35437136628,10.217096657
6.06625203145,7.47551836317,3.31673485854,11.8340456762
3.80831074895,6.06300256936,3.3590983508,13.1609946953
8.61036946645,5.89048677555,2.58146184307,10.5879437145
6.46242818394,5.09797098174,2.93382533533,7.0148927337
4.91448690144,2.28545518792,1.10618882759,8.12184175288
7.00654561894,0.0429393941158,0.448552319856,4.94879077206
7.84860433644,3.0904236003,-0.859084187879,3.27573979125
2.12066305393,-0.942092193505,-2.62672069562,3.32268881043
3.32272177143,0.735392012681,-3.58435720335,2.72963782961
3.74478048892,-3.86712378113,-4.48199371109,0.676586848791
5.92683920642,-1.16963957494,-3.50963021883,3.07353586797
-0.241102076081,-0.292155368752,-4.52726672656,5.04048488715
2.50095664142,-0.384671162559,-5.4749032343,6.25743390633
9.02301535891,6.43281304363,-3.50253974204,8.85438292552
11.9450740764,12.0802972498,-1.79017624977,12.3413319447
9.9471327939,13.287781456,-1.57781275751,15.3882809639
11.7991915114,10.1552656622,-1.45544926525,15.3252299831
12.5612502289,11.4327498684,-1.95308577298,15.4621790022
12.9733089464,9.89023407457,-1.94072228072,12.4291280214
15.0253676639,11.4477182808,-1.52835878846,11.1160770406
16.7674263814,13.175202487,0.364004703806,5.28302605979
14.2794850989,15.7826866931,2.47636819607,9.24997507897
14.1415438164,12.2101708993,1.56873168833,11.2169240982
5.55360253388,4.29765510552,-2.4889048194,3.13387311733
4.56566125137,7.42513931171,-1.15654132714,5.15082213651
-3.08228003113,1.7026235179,0.325822165123,-5.51222884431
0.489778686369,-3.50989227591,-0.771814342612,-9.61527982512
-0.0981625961322,-2.19240806972,0.24054914965,-8.26833080594
5.57389612136,-0.654923863534,0.432912641914,-6.34138178676
2.34595483886,1.13256034266,1.78527613418,-1.46443276758
-1.50198644364,-0.0699554511521,0.69763962644,-4.5274837484
-1.30992772615,-4.88247124496,0.310003118704,-6.06053472922
-1.12786900865,0.775012961225,2.15236661097,-1.63358571003
2.66418970885,-1.81750283259,1.18473010323,-3.14663669085
3.97624842634,-4.4800186264,1.46709359549,-8.50968767167
3.05830714384,-2.45253442021,1.62945708776,-3.92273865249
-5.50963413866,-7.14505021402,0.99182058002,-7.08578963331
-11.3075754212,-7.61756600783,-0.0858159277159,-9.53884061413
-14.6155167037,-6.75008180164,-0.143452435452,-13.6718915949
-9.16345798617,-6.03259759545,0.228911056811,-12.3749425758
-7.02139926868,-7.75511338926,-0.498725450925,-11.8779935566
-12.5493405512,-9.58762918307,-0.756361958664,-10.7310445374
-14.8372818337,-7.94014497688,-0.0539984663992,-10.1940955182
-13.8552231162,-9.03266077069,-0.711634974135,-13.157146499
-11.4731643987,-10.5051765645,-1.03927148187,-11.2501974799
-14.1811056812,-10.2376923583,-0.506907989607,-11.9632484607
-15.9990469637,-9.82020815213,-1.10454449734,-12.4462994415
-12.7169882462,-4.27272394593,0.567818994918,-6.78935042231
-13.1649295287,-7.16523973975,0.600182487182,-8.46240140313
-12.7028708112,-5.19775553356,1.82254597944,-9.03545238395
-10.5408120937,-1.04027132737,2.03490947171,-3.06850336477
-8.03875337621,0.817212878821,3.11727296397,-0.781554345586
-6.68669465871,-2.36530291499,3.01963645623,-2.2746053264
-5.34463594122,-0.577818708804,2.2419999485,-2.04765630722
-4.86257722372,2.88966549739,2.30436344076,1.46929271196
-6.10051850622,5.27714970358,3.00672693302,3.25624173114
-2.02845978873,4.65463390977,4.39909042529,6.99319075032
-2.81640107123,1.68211811596,3.50145391755,4.3001397695
-2.55434235373,-0.620397677852,2.55381740981,1.72708878868
-5.87228363624,-0.532913471667,2.27618090208,-1.45596219213
-2.61022491874,-9.07542926547,-0.371455605658,-6.70901317295
-11.3781662012,-7.89794505929,0.530907886605,-7.35206415377
-15.4461074837,-10.0204608531,-1.93672862113,-9.04511513459
-8.55404876625,-13.9329766469,-4.18436512887,-8.18816611541
-4.24199004875,-11.4054924407,-3.9920016366,-8.70121709623
-2.49993133126,-8.72800823453,-3.10963814434,-3.98426807705
-4.22787261376,-9.87052402834,-3.25727465208,-3.41731905786
-7.04581389626,-7.34303982215,-2.50491115981,-4.33037003868
-7.68375517876,-9.30555561596,-2.98254766755,-6.3134210195
-8.85169646127,-8.61807140977,-1.92018417529,-6.59647200032
-6.38963774377,-4.15058720359,-2.78782068302,-2.18952298114
-6.05757902628,-6.7231029974,-3.66545719076,-7.93257396196
-3.92552030878,-2.8756187912,-3.0330936985,-5.73562494277
-8.42346159128,-9.71813458501,-3.73073020623,-9.48867592359
-8.49140287379,-8.42065037883,-3.76836671397,-8.14172690441
-8.04934415629,-8.24316617264,-2.97600322171,-7.69477788523
-5.1972854388,-6.90568196645,0.706360270555,-6.67782886605
-5.4252267213,-5.60819776026,1.76872376282,-5.53087984687
-4.3131680038,-2.08071355407,3.32108725508,-4.83393082769
-2.9511092863,0.126770652121,3.26345074735,-5.0369818085
-1.07905056881,-2.26574514169,1.17581423961,-3.08003278932
3.20300814869,-5.7482609355,1.67817773187,-2.47308377014
0.695066866188,-3.16077672931,1.47054122413,-3.92613475096
-5.45287441632,-6.91329252312,0.7029047164,-5.77918573178
0.199184301178,-3.89580831693,1.26526820866,-1.0122367126
-1.05875698133,2.78167588925,1.72763170093,0.764712306585
2.53330173617,-3.99083990455,-0.630004806811,-1.04833867423
6.59536045367,-1.26335569837,0.882358685452,2.06861034495
6.43741917117,-0.905871492178,1.71472217772,0.435559364129
4.97947788866,-2.02838728599,1.30708566998,-5.38749161669
2.92153660616,0.0490969202001,1.64944916224,-0.580542597507
-2.47640467634,0.946581126391,2.40181265451,-1.02359357833
-2.14434595884,-0.155934667418,1.72417614677,-2.13664455914
-2.41228724135,-0.578450461231,3.65653963903,-4.07969553996
-2.94022852385,0.959033744959,3.6889031313,-4.60274652078
0.631830193644,-1.07348204885,2.27126662356,-4.2257975016
-0.41611108886,-1.09599784266,0.473630115823,-3.90884848242
-2.32405237136,1.94148636353,-0.814006391913,-5.89189946324
-1.97199365387,-3.00102943028,-1.69164289965,-4.61495044405
-0.839934936368,-0.943545224094,-0.949279407387,-2.34800142487
-0.167876218871,3.3839389821,0.473084084877,0.538947594308
3.17418249862,5.95142318828,2.34544757714,2.60589661349
-0.403758783876,8.45890739447,3.2878110694,4.21284563267
-0.831700066385,3.96639160066,2.05017456167,4.34979465185
-2.11964134889,4.23387580685,2.80253805393,3.99674367103
-0.937582631388,9.39136001304,3.63490154619,8.58369269022
-4.26552391389,8.24884421923,4.61726503846,8.1406417094
1.8465348036,5.41632842542,3.97962853072,5.12759072858
0.968593521102,3.98381263161,2.09199202298,4.69453974776
2.2206522386,6.6812968378,1.38435551525,9.50148876694
4.58271095609,9.20878104399,1.99671900751,7.39843778612
7.21476967359,5.74626525018,2.23908249977,6.9653868053
10.7168283911,8.84374945637,2.54144599204,11.4123358245
10.2888871086,10.9912336626,1.5438094843,11.8192848437
10.2609458261,6.60871786874,0.456172976565,9.63623386285
8.78300454358,6.20620207493,-1.31146353117,8.30318288203
5.22506326108,1.66368628112,-2.21910003891,6.49013190121
4.99712197857,1.44117048731,-1.00673654665,6.07708092039
2.34918069607,-1.4613453065,-3.11437305438,2.94402993958
4.09123941357,5.17613889969,-2.27200956212,7.18097895876
7.41329813106,4.28362310588,-2.39964606986,4.83792797794
8.30535684856,2.47110731207,-3.09728257759,7.43487699712
8.16741556606,5.30859151826,-4.25491908533,9.7418260163
13.2394742835,6.84607572445,-3.37255559307,7.70877503548
8.58153300105,1.27355993064,-5.8801921008,2.30572405467
9.31359171855,3.17104413683,-5.37782860854,2.64267307385
9.51565043604,-1.74147165698,-6.48546511628,0.349622093027
10.6450835756,0.11464026164,-3.07833212209,3.88122456395
14.3211255665,5.05826674374,-2.44270878159,9.08089400979
13.4771675575,5.97189322584,-1.02708544108,11.1705634556
13.1232095484,6.41551970794,0.00853789942084,10.1102329015
11.1092515393,5.33914619004,-0.295838760072,8.86990234732
12.7052935303,4.86277267214,1.51978458043,6.40957179317
10.8913355212,5.01639915424,3.25540792094,5.63924123901
10.4073775121,8.28002563634,2.99103126144,10.3189106849
8.66341950307,8.09365211844,2.84665460195,9.2185801307
3.39946149401,4.71727860054,4.41227794245,5.72824957654
0.765503484941,5.23090508264,4.75790128296,6.13791902239
2.98154547588,0.57453156474,4.00352462347,3.26758846823
-1.78241253319,-2.63184195316,1.59914796397,-0.402742085928
4.15362945775,-3.27821547106,0.644771304476,1.10692735992
1.80967144869,-4.57458898896,1.28039464498,-0.313403194243
-0.11428656038,-6.30096250686,-0.853982014514,-2.4437337484
1.41175543056,-4.35733602476,-1.13835867401,-0.754064302556
-2.2922025785,-2.17370954266,0.187264666498,-0.824394856712
-2.96616058757,-0.0300830605593,2.142888007,3.81527458913
-2.74011859664,7.13354342154,5.22851134751,7.60494403497
-5.6640766057,1.36716990365,3.20413468801,4.28461348082
-2.54803461476,0.870796385741,3.36975802852,2.29428292666
-1.92199262383,-0.625577132156,1.76538136902,-1.4960476275
-6.96595063289,-5.17195065006,1.22100470953,-3.82637818165
-11.279908642,-3.02832416796,2.00662805004,-2.56670873581
-13.733866651,-1.37469768586,1.25225139054,-3.77703928997
-10.3978246601,2.59892879624,2.87787473105,-3.24736984412
-9.99178266915,-0.757444721658,3.12349807155,-6.80770039828
-11.7757406782,1.65618176045,1.18912141206,-6.32803095244
-8.50969868728,1.33980824254,0.394744752562,-3.58836150659
-13.8936566963,-0.566565275356,1.68036809307,-1.89869206075
-11.1676147054,-3.70293879325,1.70599143357,-4.36902261491
-8.45157271447,-1.79931231116,1.80161477408,-4.95935316906
-9.70553072354,2.62431417095,2.79723811458,-3.75968372322
-8.6294887326,6.19794065305,3.25286145509,2.48998572262
-5.85344674166,5.25156713515,3.72848479559,1.65965516847
-7.32740475073,3.77519361725,1.4541081361,2.69932461431
-6.15136275979,4.23882009934,1.4897314766,2.59899406015
-8.96532076886,3.23244658145,1.27535481711,-0.851336494004
-8.55927877792,-2.31392693645,1.10097815762,-4.34166704816
-8.51323678699,-0.910300454354,0.926601498122,-2.65199760232
-6.29719479605,0.583326027747,1.18222483863,-1.97232815647
-6.27115280511,3.01695250985,1.72784817913,-3.36265871063
-2.80511081418,2.65057899195,2.04347151964,-1.76298926479
-1.16906882324,0.974205474049,1.49909486014,-0.763319818944
-2.23302683231,1.48783195615,1.46471820065,-0.593650373101
-1.02698484137,-1.01854156175,0.170341541154,-0.873980927257
-3.75094285043,-1.11491507965,-2.61403511834,-1.03431148141
-2.1549008595,-4.18128859755,-2.87841177783,-3.57464203557
-2.86885886857,-0.78766211545,-1.01278843733,-2.37497258973
-0.36281687763,-4.59403563335,-2.00716509682,-1.19530314388
-0.0667748866945,-1.13040915125,-1.15154175632,0.184366301958
4.42926710424,0.923217330848,-0.805918415814,1.6040357478
3.24530909517,-0.97315618705,-1.87029507531,1.70370519364
0.141351086113,0.0504702950493,-0.884671734802,-0.716625360512
10.007393077,-2.30590322285,-1.3190483943,-1.01695591467
8.15343506799,-5.93227674075,-3.50342505379,-3.54728646882
3.25947705892,-2.26865025865,-4.14780171328,-3.57761702298
5.29551904985,-1.73502377655,-4.94217837278,-4.57794757714
-1.28843895921,-8.40139729445,-6.07655503228,-8.2882781313
-6.00239696827,-9.26777081235,-5.30093169177,-10.2686086855
-17.1563549773,-3.86414433025,-3.73530835126,-7.83893923961
-11.8703129864,-5.21051784815,-3.24968501076,-10.8392697938
-3.87427099547,-9.54689136605,-5.57406167025,-13.5596003479
-9.98822900453,-7.88326488395,-5.80843832975,-12.1799309021
-2.4321870136,-11.0796384019,-5.48281498924,-15.7902614562
0.83385497734,-10.2560119197,-6.48719164874,-15.0805920104
2.10989696828,-10.3723854376,-6.57156830823,-12.0909225646
-1.21406104079,-3.68875895555,-5.64594496773,-8.03125311871
4.62198095015,-6.12513247345,-5.99032162722,-6.57158367286
4.06802294108,-5.10150599134,-5.00469828672,-3.98191422702
3.76406493202,-3.04787950925,-3.55907494621,-3.32224478118
5.40010692296,-1.42425302714,-3.17345160571,-3.48257533533
2.76614891389,-0.130626545044,-2.9178282652,-0.812905889489
-0.767809095178,-2.56700006295,-2.71220492469,-3.72323644365
0.0182328957599,-6.55337358085,-4.17658158419,-7.4435669978
1.7642748867,-7.51974709874,-4.84095824368,-5.24389755196
4.39031687763,-3.98612061665,-3.75533490318,-6.12422810612
2.91635886857,0.527505865455,-2.09971156267,-4.11455866027
2.6224008595,-0.998867652444,-3.09408822217,-2.40488921443
0.418442850438,-1.60524117034,-1.72846488166,-2.77521976859
8.98448484137,3.68838531176,-2.30284154116,-0.725550322743
9.97052683231,0.552011793854,-3.02721820065,-0.825880876901
9.01656882324,2.13563827596,-1.23159486015,2.63378856894
13.2426108142,4.49926475806,-1.26597151964,8.05345801479
9.82865280512,0.0328912401565,-1.53034817914,4.60312746063
13.0446947961,-1.22348227774,-1.58472483863,1.15279690647
9.07073678699,1.83014420436,-0.979101498124,2.98246635232
8.18677877792,-0.356229313544,-0.493478157619,3.82213579816
6.68282076886,-4.16260283144,0.0921451828872,3.301805244
6.0388627598,1.91102365066,0.407768523391,4.61147468985
5.62490475073,4.48465013276,1.2433918639,6.48114413569
4.78094674167,4.04827661486,-0.670984795597,6.85081358153
5.1169887326,-1.73809690304,-1.59536145509,2.35048302738
2.23303072354,-0.84447042094,-0.0297381145865,3.19015247322
-0.460927285527,-1.08084393884,-2.09411477408,2.70982191906
2.17511470541,-0.677217456741,-0.838491433575,1.06949136491
0.591156696344,1.21640902536,0.307131906929,1.48916081075
-2.04280131272,3.34003550746,-0.0372447525642,2.85883025659
0.643240678215,0.113661989559,0.0783785879412,2.98849970244
2.32928266915,3.79728847166,3.41400192845,5.81816914828
1.14532466009,6.70091495376,2.90962526895,8.22783859412
4.81136665103,2.83454143586,0.0152486094576,7.76750803996
10.857408642,5.82816791796,0.250871949964,13.3971774858
11.4434506329,8.34179440006,1.03649529047,15.2368469317
10.8394926238,4.40542088216,-0.187881369025,10.7565163775
13.5855346148,4.20904736426,-0.152258028522,7.57618582334
7.0715766057,2.19267384636,0.503365311984,3.61585526918
5.34761859664,1.26630032846,0.218988652488,3.44552471502
-1.86633941243,-1.75007318944,0.0446119929948,-2.61480583913
-4.48029742149,1.39355329266,1.1302353335,-1.17513639329
-5.27425543056,-2.58282022524,0.825858674007,-0.445466947446
-1.11821343962,-1.75919374314,2.13148201451,-1.2157975016
-1.87217144869,1.58443273896,3.92710535502,1.21387194424
-5.89612945775,0.508059221065,2.25272869552,-1.31645860992
-4.93008746681,1.92168570317,2.39835203603,2.05321083593
-2.82404547588,3.56531218526,3.07397537653,1.77288028177
-5.27800348494,0.588938667366,2.38959871704,-1.31745027239
-0.851961494005,1.93256514947,3.65522205754,0.792219173457
-8.37591950307,-1.53380836844,4.13084539805,-0.758111380699
-9.08987751213,1.78981811367,5.70646873856,1.22155806514
-4.5938355212,0.373444595763,4.39209207906,-0.748772489013
-6.10779353026,5.51707107787,4.24771541957,-0.55910304317
-5.19175153933,5.42069755997,4.45333876007,1.82056640267
-10.3257095484,1.84432404206,4.38896210058,1.72023584852
-7.03966755746,1.32795052417,3.03458544108,1.86990529436
-3.03362556652,-0.178422993733,1.53020878159,-1.2204252598
-8.59758357559,0.785203488365,2.20583212209,-4.29075581395
1.19645348838,7.72465843024,4.12725290698,4.62706031977
-2.21039764923,2.37493816953,3.94290148325,2.45908126945
1.97275121315,3.24521790881,3.15855005951,5.04110221914
1.24590007554,1.6454976481,1.32419863578,2.04312316883
-4.06095106207,4.99577738739,2.43984721205,1.09514411852
2.72219780032,4.39605712668,1.25549578832,0.767165068209
1.19534666271,-0.483663134037,-0.668855635413,-0.280813982102
4.1784955251,-3.46338339475,-0.583207059146,0.931206967587
2.58164438748,1.73689634454,-0.137558482877,1.13322791728
-8.78520675013,-3.56282391617,-0.951909906611,-3.59475113304
-9.71205788774,4.74745582312,0.933738669657,3.55726981665
-5.07890902536,7.6777355624,1.50938724593,4.03929076634
0.324239837031,2.12801530169,0.115035822193,3.46131171603
-0.762611300583,2.11829504098,-0.0793156015388,4.31333266572
6.84053756181,2.24857478026,-0.193667025271,4.29535361541
-1.34631357581,6.40885451955,0.781981550997,10.1573745651
-4.51316471341,6.99913425884,3.12763012727,11.2193955148
2.11998414897,6.50941399813,2.52327870353,6.62141646447
2.50313301136,3.01969373742,0.738927279803,3.40343741416
4.77628187375,0.749973476701,-0.185424143929,0.755458363852
13.6394307361,-3.18974678401,-2.03977556766,-2.75252068646
5.55257959852,-6.98946704472,-3.18412699139,-2.68049973677
-0.894271539091,-9.98918730544,-3.33847841512,-6.04847878708
0.728877323298,-8.22890756615,-5.04282983886,-8.90645783739
-0.137973814315,-7.04862782686,-3.88718126259,-7.6044368877
-10.5548249519,-8.03834808757,-3.88153268632,-8.78241593802
-3.17167608954,-11.6580683483,-5.13588411005,-8.89039498833
-12.6885272272,-6.147788609,-2.26023553378,-5.86837403864
-5.14537836476,-4.09750886971,-2.01458695752,-3.46635308895
8.36777049763,-3.10722913042,-1.87893838125,-4.20433213926
19.89091936,5.95305060887,-0.0932898049796,6.15768881043
-3.2759317776,3.02333034815,-0.407641228712,1.10970976012
0.467217084788,-6.05638991256,-2.26199265244,-1.63826929019
1.51036594718,4.91388982673,0.283655923824,4.25375165949
9.85351480957,3.68416956602,-1.49069549991,5.14577260918
0.476663671951,0.394449305306,-2.29504692364,4.30779355887
1.96981253434,4.61472904459,-1.04939834737,5.78981450856
16.1729613967,5.63500878388,0.026250228897,4.63183545825
-10.5138897409,5.58528852317,0.00189880516518,2.02385640794
9.7092591215,8.26556826245,-0.832452618566,3.56587735763
10.3224079839,6.06584800174,-1.1868040423,3.68789830732
-6.00444315372,3.11612774103,-0.72115546603,1.539919257
0.868705708668,-1.94359251968,-2.46550688976,-2.58805979331
-8.72814542895,-3.28331278039,-1.72985831349,-7.29603884362
-3.89499656656,-1.68303304111,-1.44420973722,-4.05401789393
1.56815229583,3.92724669818,0.461438839044,3.15800305576
2.90130115822,1.37752643747,0.877087415311,2.09002400545
4.7844500206,-2.34219382324,0.742735991578,0.882044955137
-4.30240111701,2.65808591604,2.52838456785,-0.445934095174
-2.15925225462,-1.26163434467,1.74403314411,-3.44391314549
-0.476103392233,-2.87135460538,1.75968172038,-2.9918921958
4.13704547016,-2.47107486609,1.49533029665,-5.23987124611
-12.6398056675,1.4392048732,1.20097887292,-2.74785029642
-2.36665680506,-4.00051538752,0.726627449187,-1.91582934673
-0.0335079426804,0.88976435177,1.64227602546,-2.49380839704
4.58964091971,1.26004409106,1.61792460172,2.98821255265
4.93278978209,-0.299676169656,2.33357317799,1.07023350234
-5.81406135552,-3.43939643037,2.14922175426,-3.79774554798
-10.6309124931,-4.75911669108,1.65487033053,-4.03572459829
-13.6777636307,-3.44883695179,-0.219481093203,-3.0437036486
2.55538523165,-0.728557212504,-0.423832516935,-3.38168269891
-5.85146590597,-4.43827747321,-1.27818394067,-6.45966174922
2.65168295642,-6.31799773393,-0.8325353644,-4.37764079953
-2.59516818119,0.0422820053609,1.80311321187,-3.65561984984
-7.5920193188,0.202561744645,2.35876178814,-4.27359890015
-1.58887045641,-2.97715851607,1.8644103644,-5.25157795047
-6.00572159403,-8.21687877678,0.370058940673,-5.75955700078
-6.08257273164,-4.90659903749,0.945707516939,-4.32753605109
-3.85942386925,-7.3063192982,-1.77864390679,-4.6255151014
-3.24627500686,-0.156039558915,-1.18299533052,0.13650584829
1.23687385552,2.94424018037,1.05265324574,-0.281473202022
-12.0299772821,1.15451991966,2.18830182201,-0.929452252332
-1.0468284197,0.364799658946,1.78395039828,-1.00743130264
-5.57367955731,-0.754920601765,0.619598974548,-0.845410352955
-1.71053069492,1.85535913752,-0.874752449183,3.22661059673
6.03261816746,0.105638876812,-1.54910387291,-0.121368453578
1.83576702985,-1.8040813839,-1.21345529665,-4.91934750389
-3.83108410776,-5.87380164462,-2.46780672038,-6.4773265542
-1.73793524537,-2.48352190533,-0.752158144111,-3.85530560451
0.825213617012,-4.18324216604,-1.08650956784,-3.45328465482
8.3183624794,-2.71296242675,-1.94086099157,0.648736294866
0.351511341789,-3.54268268746,-0.795212415305,1.01075724455
0.89466020418,-1.31240294818,-0.869563839036,3.83277819424
11.4978090666,2.59787679111,-0.263915262769,3.79479914393
2.73095792895,9.3581565304,1.7017333135,4.57682009362
3.47410679134,-3.20156373031,-2.62261811023,-2.08115895669
-0.00274434626772,-4.66128399103,-1.56696953397,-4.929138007
-1.70959548388,0.838995748261,-1.0113209577,-0.637117057312
9.99355337851,7.08927548755,-0.47567238143,6.90490389238
0.566702240892,-4.49044477316,-0.990023805161,0.896924842065
7.54985110328,-0.120165033877,-0.0543752288922,3.64894579175
6.58299996567,4.55011470541,1.73127334738,6.32096674144
-8.29385117194,2.9803944447,4.42692192364,4.51298769113
4.45929769045,2.80067418399,4.78257049991,4.22500864082
6.37244655283,2.23095392328,4.75821907618,-0.842970409491
2.80559541522,2.03123366256,4.55386765245,0.239050540198
5.82874427761,-4.85848659815,0.759516228716,-1.29892851011
6.22189314,-7.02820685886,-2.17483519502,-2.20690756042
-2.21495799762,-4.79792711958,-2.12918661875,0.115113389264
-1.24180913523,-3.88764738029,0.83646195752,-2.58286566105
-4.04866027284,0.282632359002,2.83211053379,1.69915528864
-4.88551141046,-9.08708790171,0.727759110057,-3.90882376167
-2.10236254807,-5.10680816242,1.23340768633,-3.47680281198
-7.16921368568,-0.646528423134,1.29905626259,-2.44478186229
1.60393517671,-0.71624868385,0.38470483886,-2.6427609126
-2.6129159609,2.87403105544,1.52035341513,-0.600739962914
-4.13976709851,-1.19568920527,1.1860019914,1.55128098678
0.543381763873,-0.575409465986,0.821650567665,0.883301936464
-2.33346937374,4.2548702733,1.69729914393,1.09532288615
0.38967948865,-2.14484998741,0.6629477202,-3.73265616416
3.28282835104,4.24542975187,0.978596296469,-0.60063521447
2.52597721342,4.10570949117,0.0542448727374,3.70138573522
1.44912607581,2.53598923045,-0.080106550995,0.483406684907
3.2422749382,8.09626896974,1.52554202527,7.6654276346
-1.68457619941,-1.11345129097,-2.06880939846,-0.502551415715
2.86857266298,-1.92317155168,-3.41316082219,-4.61053046603
1.24172152536,-3.7428918124,-4.22751224592,-4.24850951634
2.41487038775,-2.16261207311,-4.47186366965,-1.36648856665
-5.89198074986,-5.74233233382,-4.29621509339,-6.96446761696
-2.78883188747,1.42794740547,-1.48056651712,-1.46244666727
-2.57568302509,3.36822714475,0.685082059152,2.83957428242
-1.7625341627,2.98850688404,2.20073063542,2.10159523211
4.97061469969,7.29878662333,3.58637921169,6.02361618179
-4.60623643792,4.47906636262,1.42202778795,3.23563713148
3.54691242447,7.0593461019,-0.392323635777,9.33765808117
3.53006128685,6.69962584119,-1.08667505951,9.65967903086
3.87321014924,4.83990558048,-1.29102648324,4.30169998055
-5.97364098837,1.55018531977,-3.77537790697,2.96372093024
4.60654433141,2.36406250001,-1.32707848838,2.60702398256
-1.04375188838,0.486544045281,-0.642155254305,-2.9807145841
5.44595189184,-4.47097440944,-3.17723202024,-5.67845315075
1.56565567205,-2.69849286417,-3.41230878617,-3.98619171741
-6.18464054774,3.09398868111,-2.0273855521,4.42606971594
-2.37493676752,1.72647022639,-2.26246231803,5.46833114928
5.00476701269,8.39895177166,0.54246091604,8.22059258263
-0.435529207094,5.61143331694,2.43738415011,4.33285401598
6.29417457312,6.59391486221,4.37230738418,3.23511544932
4.98387835333,3.78639640749,3.83723061825,10.7973768827
-0.566417866452,-2.36112204724,0.672153852314,6.07963831601
-1.54671408624,-0.00864050196469,-1.39292291362,-2.43810025064
2.95298969398,1.62384104331,-0.307999679548,2.5241611827
-0.707306525808,0.576322588589,1.87692355452,3.37642261605
-1.07760274559,-1.76119586614,2.85184678859,4.80868404939
7.13210103462,-2.66871432086,2.86677002266,3.31094548274
-1.46819518517,3.90376722442,5.63169325673,-1.35679308391
-4.51849140495,0.616248769689,4.4166164908,-4.31453165057
-2.78878762474,-1.56126968503,3.74153972486,-2.23227021722
-7.27908384452,-1.04878813976,3.77646295893,-2.07000878388
4.15061993569,-4.28630659448,3.501386193,-0.357747350532
6.6403237159,-0.273825049208,2.91630942707,-2.02548591719
2.96002749612,-1.97134350393,2.26123266114,-2.27322448384
-10.4002687237,-1.31886195865,3.61615589521,-3.19096305049
-4.49056494345,-2.23638041338,1.28107912928,-4.86870161715
-4.24086116324,5.30610113189,2.03600236335,3.8935598162
