3.11172238373,-2.98361555232,-1.40407703489,-0.905643168611
0.342449442647,-9.33540285662,-2.24673305599,-7.51901148486
-9.00682349844,-2.51719016091,1.08061092291,-5.4123798011
-8.15609643952,-7.1989774652,-0.8620450982,-8.36574811734
-11.4053693806,-5.9707647695,-2.1047011193,-6.92911643358
-12.9446423217,-5.10255207379,0.192642859591,-5.23248474982
-8.10391526277,-4.83433937809,1.59998683849,-5.18585306606
-1.65318820385,-7.69612668238,-1.05266918262,-7.21922138231
6.12753885507,-5.57791398667,-2.54532520372,-7.19258969855
7.56826591399,-4.30970129097,-2.07798122483,-3.41595801479
10.0989929729,-1.38148859526,-2.61063724593,0.930673668965
3.84972003182,1.36672410045,-1.40329326703,2.00730535272
-3.40955290926,4.06493679615,0.434050711863,4.84393703648
0.161174149656,-3.44685050814,-1.88860530924,1.05056872024
3.96190120858,-5.59863781244,-0.431261330346,-2.662799596
3.17262826749,2.57957488327,0.886082648549,2.95383208775
2.48335532641,-3.50221242103,-1.72657337255,3.56046377151
7.36408238533,-0.353999725319,-0.359229393658,3.13709545527
3.08480944424,1.96421297039,-0.431885414762,3.76372713903
5.41553650317,2.10242566609,-0.474541435868,0.240358822783
1.93626356208,-0.449361638202,-0.647197456972,-0.323009493459
-1.433009379,-2.8011489425,-0.889853478075,-0.3863778097
-2.83228232008,2.91706375321,-0.60250949918,2.83025387406
-2.44155526117,-4.57472355108,-2.83516552028,0.536885557816
-1.58082820225,6.40348914462,0.482178458611,5.05351724157
3.31989885667,-0.828298159673,0.619522437508,2.75014892533
5.90062591559,-1.83008546397,-0.213133583597,1.59678060909
8.57135297451,1.40812723174,1.1542103953,3.07341229284
5.09208003342,1.26633992744,0.911554374195,6.8100439766
-0.337192907657,0.234552623149,-4.61110164691,-0.743324339641
-8.90646584874,-0.437234681143,-3.24375766801,-2.82669265588
-0.985738789823,-1.30902198544,-1.53641368912,-3.24006097213
8.16498826909,4.89919071027,-1.04906971022,1.49657071164
6.11571532801,6.16740340597,-0.801725731326,6.03320239539
7.43644238693,1.85561610168,-1.31438175243,3.50983407915
-5.76283055415,5.58382879739,0.992962226466,2.32646576291
3.56789650477,0.392041493091,-0.229693794638,1.06309744667
0.0486235636818,5.4702541888,-0.0323498157431,2.71972913042
-10.1606493774,0.998466884503,-2.19500583685,-2.13363918582
4.00007768152,6.04667958021,-0.477661857949,2.52299249794
-7.68919525956,3.69489227591,-0.900317879054,2.3396241817
-3.22846820065,1.50310497162,2.23702609984,1.40625586546
-7.68774114173,1.76131766733,3.22437007874,0.0928875492136
-10.4370140828,2.49953036303,2.50171405763,-0.670480767032
-5.72628702389,3.18774305874,0.949058036529,0.136150916725
-7.37555996497,-0.0140442455559,0.276402015425,1.53278260048
-3.38483290606,-2.22583154985,-0.65625400568,-2.04058571576
-2.82410584714,2.80238114586,-1.50891002679,-0.993954032001
-1.63337878822,1.50059384156,-1.28156604789,-0.897322348243
3.5473482707,2.32880653727,-1.77422206899,3.45930933551
-2.33192467038,-1.21298076703,-0.856878090097,1.56594101927
-5.38119761147,-5.05476807132,0.000465888799226,-4.30742729697
-4.77047055255,-0.836555375614,-0.0421901323061,-3.24079561321
-8.68974349363,4.26165732009,2.14515384659,-1.04416392945
-0.749016434715,3.2898700158,1.56249782549,2.9624677543
-3.3982893758,0.388082711503,0.789841804382,1.50909943806
-6.47756231688,3.80629540721,1.63718578328,3.90573112182
-4.70683525796,9.65450810291,3.07452976217,8.80236280557
-1.87610819905,1.67272079862,1.26187374107,3.00899448933
8.14461885987,6.41093349433,0.859217719966,9.9256261731
2.38534591879,11.47914619,4.70656169886,12.0222578569
8.49607297771,3.85735888574,1.89390567776,5.72888954061
7.56680003663,-0.754428418555,-0.988750343347,0.565521224366
7.34752709555,-7.14621572285,-3.26140636445,-2.69784709188
2.72825415446,-10.3880030271,-4.98406238555,-8.93121540812
-0.931018786621,-6.90979033144,-3.10671840666,-8.61458372436
-1.2502917277,-4.85157763573,0.180625572237,-6.8679520406
-1.75956466878,0.106635059974,0.967969551133,-5.52132035685
0.421162390136,1.97484775568,1.61531353003,-6.57468867309
1.12188944905,7.45306045139,2.62265750892,-1.78805698933
-5.28738349203,9.53127314709,3.55000148782,0.428574694426
3.14334356688,-1.4305141572,1.28734546672,-0.644793621814
-0.355929374196,-0.0923014614982,1.26468944561,-2.44816193806
1.12479768472,3.32591123421,1.27203342451,0.5684697457
1.07552474364,6.81412392991,3.7293774034,0.955101429456
7.29625180256,0.0823366256191,2.9267213823,-0.948266886786
-2.06302113853,0.900549321326,3.87406536119,-2.71163520303
-0.402294079606,4.02876201703,4.54140934009,-0.805003519272
-3.01156702069,9.36697471274,5.14875331899,0.961628164489
7.03916003823,0.805187408443,2.31609729788,-3.15174015175
6.34988709715,1.92340010415,1.04344127678,0.0248915320044
3.19061415606,1.11161279986,1.58078525568,5.15152321576
5.65134121498,-3.52017450444,-0.941870765429,-0.121845100482
7.1120682739,-1.80196180873,-3.51452678653,2.74478658328
6.40279533282,-3.21374911303,-3.35718280764,1.76141826703
9.05352239173,3.91446358268,0.940161171256,1.87804995079
9.97424945065,-5.73732372162,-2.12249484985,-0.115318365453
0.554976509571,-5.13911102591,-1.74515087095,-1.96868668169
6.55570356849,-0.740898330203,0.202193107945,-0.642054997934
-0.593569372591,2.7873143655,1.27953708684,4.36457668582
1.11715768632,-2.51447293879,2.93688106574,3.18120836958
1.23788474524,-2.20626024309,4.39422504463,1.19784005334
0.708611804159,-2.33804754738,3.50156902353,0.394471737094
3.77933886308,-4.01983485167,2.31891300242,-0.628896579146
4.75006592199,-5.03162215597,3.83625698132,-1.45226489539
14.5707929809,0.196590539739,7.97360096022,5.61436678837
-1.15847996017,2.96480323544,4.94094493911,2.53099847213
-0.56775290125,3.32301593115,4.75828891801,5.54763015588
-1.14702584234,7.27122862686,5.7656328969,7.42426183964
-0.416298783417,8.65944132256,6.8429768758,6.1308935234
-3.3655717245,11.1776540183,6.5603208547,5.55752520716
6.54515533442,2.63586671397,4.61766483359,2.11415689092
5.19588239334,11.9340794097,6.47500881249,6.25078857467
-2.77339054774,4.78229210538,1.80235279138,4.82742025843
-1.42266348883,4.33050480109,-0.300303229722,3.35405194219
2.98806357009,2.9387174968,-1.50295925083,1.63068362595
-4.76120937099,-3.0330698075,-1.81561527193,-1.3326846903
-6.16048231208,-4.90485711179,-1.62827129304,-4.93605300654
-1.83975525316,-1.51664441609,-1.50092731414,-0.72942132278
-3.75902819424,1.94156827962,-1.20358333524,0.707210360975
-3.09830113532,-5.28021902467,-1.73623935635,-6.91615795527
-6.1075740764,-4.47200632897,-1.68889537745,-3.89952627151
-7.68684701749,-0.833793633263,-1.89155139856,-1.57289458775
-0.766119958571,-3.74558093756,-2.76420741966,-0.446262903995
-3.04539289965,-6.15736824185,-3.00686344076,-1.13963122023
-10.2346658407,-7.56915554615,-3.13951946187,-6.16299953647
-11.1139387818,-4.29094285044,-2.57217548297,-8.41636785272
-7.5132117229,-4.74273015473,-3.15483150408,-7.85973616896
-3.34248466398,-4.92451745903,-4.04748752518,-5.5731044852
-3.49175760506,-6.21630476332,-5.48014354628,-3.20647280145
1.74896945386,-3.35809206761,-4.11279956739,0.62015888231
1.23969651277,-3.58987937191,-4.01545558849,-2.66320943393
3.19042357169,-0.0816666762039,-2.5881116096,-2.48657775018
-5.26884936939,-6.5634539805,-5.3307676307,-3.79994606641
7.08187768953,-4.58524128479,-4.4334236518,-0.483314382658
-5.45739525155,-0.267028589085,-2.04607967291,-2.5866826989
3.11333180736,0.751184106621,-4.47873569401,1.94994898486
3.19405886628,-1.50060319767,-4.76139171512,2.08658066862
13.8139244186,13.8969549419,1.75679869186,11.367278343
13.1591222132,8.53204472625,1.1471074723,8.81487533762
11.5843200078,4.10713451063,1.92741625274,7.82247233222
22.1895178024,5.62222429501,2.00772503319,9.90006932681
13.424715597,6.84731407939,2.15803381363,9.33766632141
10.9799133915,7.70240386377,3.02834259407,9.73526331601
9.09511118614,3.87749364815,2.34865137452,7.46286031061
4.21030898073,12.2825834325,2.38896015496,8.4204573052
7.15550677532,4.85767321691,2.4292689354,6.9680542998
8.08070456991,7.92276300129,2.22957771585,7.0256512944
5.9959023645,12.8378527857,3.55988649629,8.133248289
7.85110015909,11.72294257,4.61019527673,9.2708452836
11.9062979537,7.71803235443,4.52050405717,11.8384422782
8.95149574826,8.50312213881,4.56081283762,9.6560392728
11.5766935429,9.92821192319,3.59112161806,10.9736362674
18.2318913374,12.0533017076,2.7614303985,12.931233262
9.92708913203,0.87839149195,0.291739178949,4.36883025659
10.2622869266,5.52348127633,2.17204795939,5.56642725119
9.2874847212,5.65857106071,3.53235673984,5.65402424578
11.4926825158,7.39366084509,2.40266552028,6.11162124038
9.13788031038,9.22875062947,2.56297430072,9.85921823498
3.92307810497,10.1938404138,4.09328308117,9.63681522958
12.0982758996,15.7589301982,5.30359186161,11.5944122242
3.52347369415,3.14401998261,2.21390064205,5.44200921878
8.52867148874,3.43910976699,2.36420942249,3.57960621337
4.92386928333,4.10419955137,2.13451820294,3.64720320797
12.4890670779,8.03928933575,2.97482698338,5.33480020257
14.1642648725,-0.29562087987,2.86513576382,4.84239719717
7.35946266709,1.95946890451,3.08544454427,3.14999419176
11.0546604617,10.0045586889,5.22575332471,8.53759118636
9.28985825627,9.75964847327,4.41606210515,6.63518818096
1.90505605086,-1.37526174235,0.316370885595,-1.97721482444
1.83025384545,-1.69017195797,-0.0833203339607,-2.09961782984
0.475451640039,-3.56508217359,-1.34301155352,-4.18202083524
-6.47935056537,-3.80999238921,-1.75270277307,-2.51442384064
-8.12415277079,-6.60490260483,-2.09239399263,-5.71682684605
-2.3889549762,-4.50981282045,-2.36208521219,-9.27922985145
-11.2237571816,-0.0547230360698,0.898223568256,-6.78163285685
-12.168559387,-5.66963325169,1.0885323487,-7.38403586225
-9.18336159243,-14.5445434673,-3.16115887086,-9.98643886765
-8.38816379784,-8.32945368293,-3.61085009041,-4.33884187306
-3.54296600325,-6.52436389855,-2.38054130997,-3.11124487846
-3.43776820866,-4.41927411417,-1.61023252953,-3.79364788386
-13.5425704141,-10.5941843298,-2.29992374908,-8.93605088926
-10.2073726195,-10.9690945454,-2.10961496864,-6.19845389467
-17.7221748249,-9.81400476103,-1.9593061882,-7.78085690007
-11.9569770303,-6.65891497665,-2.24899740776,-6.85325990547
-13.9317792357,-6.46382519227,0.161311372687,-5.94566291087
-13.2065814411,-4.28873540789,2.12162015313,-5.18806591627
-8.67138364654,-2.28364562351,1.82192893357,-1.39046892167
-8.66618585195,-5.40855583913,0.372237714017,-2.72287192708
-14.0609880574,-4.00346605475,-0.667453505541,-5.05527493248
-9.36579026277,-5.58837627037,-1.8771447251,-5.59767793788
-11.6805924682,-12.833286486,-0.556835944653,-10.2000809433
-12.3153946736,-10.3581967016,0.35347283579,-12.8024839487
-5.28019687901,-8.47310691723,1.01378161623,-8.62488695409
-12.5549990844,-6.01801713285,1.32409039668,-9.25728995949
-16.0298012898,-3.38292734847,0.74439917712,-4.52969296489
-13.6146034952,-7.53783756409,-0.675292042437,-8.06209597029
-25.3594057007,-7.00274777971,-2.35498326199,-10.7044989757
-9.25420790606,-15.1376579953,-7.38467448155,-13.6669019811
-13.3690101115,-15.0525682109,-9.04436570111,-15.5693049865
-25.9438123169,-10.4774784266,-4.26405692066,-14.3717079919
-18.2386145223,-9.91238864219,-4.15374814022,-12.5241109973
-14.2934167277,-7.38729885781,-5.86343935978,-8.9965140027
-13.7382189331,-10.6722090734,-4.50313057934,-13.8989170081
-10.4430211385,-9.84711928905,-7.01282179889,-13.0313200135
-11.5478233439,-12.4220295047,-8.26251301845,-12.8837230189
-9.69262554935,-11.8669397203,-5.85220423801,-12.8361260243
-9.52742775477,-2.41184993591,-4.36189545756,-7.05852902971
-10.7622299602,-7.75676015153,-5.19158667712,-8.90093203511
-10.4770321656,-1.02167036715,-2.43127789668,-7.34333504051
-4.031834371,-2.47658058277,-3.75096911623,-5.30573804592
-14.9666365764,-6.23149079839,-3.96066033579,-9.58814105132
-18.8814387818,-6.59640101401,-4.25035155535,-13.0105440567
-14.8262409872,-5.59131122963,-4.3200427749,-8.59294706212
-9.24104319264,-5.98622144525,-5.95973399446,-6.36535006752
-2.97584539805,-5.63113166086,-5.91942521402,-1.80775307292
-7.90064760346,-8.76604187648,-6.32911643357,-2.35015607833
-2.76544980887,-7.7409520921,-5.70880765313,-2.49255908373
-4.85025201429,-10.8858623077,-6.68849887269,-7.07496208913
-5.7750542197,-7.74077252335,-5.86819009224,-6.52736509453
-3.56985642511,-8.14568273896,-4.8278813118,-7.86976809994
-5.83465863052,-6.22059295459,-3.86757253136,-8.10217110534
-5.61946083593,-6.73550317021,-4.24726375091,-7.03457411074
-6.29426304135,-4.63041338582,-5.50695497047,-6.68697711614
-5.71906524675,-4.41532360145,-5.39664619003,-5.23938012154
-5.84386745217,-0.120233817066,-3.12633740959,-1.76178312695
-2.51866965758,-3.22514403269,-0.736028629142,-4.49418613235
-5.41347186299,-4.1700542483,-2.1057198487,-6.72658913775
-3.5882740684,-1.01496446393,-2.48541106826,-2.97899214315
2.88692372619,0.190125320454,-2.60510228781,-1.47139514855
3.86212152078,-2.89478489516,-2.90479350737,-0.623798153953
-1.04268068463,-3.80969511078,-2.88448472692,0.753798840644
-4.12748289004,-5.8746053264,-3.35417594648,-3.24860416476
-7.29228509545,-9.28951554202,-4.43386716604,-6.86100717016
1.01291269913,-3.86442575764,-1.39355838559,-3.80341017556
2.16811049372,-0.799335973265,0.246750394848,-0.875813180963
-1.45669171169,-3.61424618888,0.047059175291,-0.748216186366
-2.1114939171,0.110843595496,0.617367955734,-1.67061919177
3.15370387749,-0.174066620124,0.0176767361772,-0.623022197171
-0.471098327922,-0.778976835745,1.39798551662,-2.89542520257
-3.63590053334,-0.223887051365,3.71829429706,-1.75782820797
-0.270702738744,-1.60879726698,2.41860307751,-0.730231213376
1.15449505584,-0.403707482605,1.89891185795,-0.782634218776
4.04969285043,2.55138230178,1.21922063839,2.11496277582
8.76489064502,3.70647208616,-0.550470581164,5.32255977042
10.8100884396,4.47156187054,-0.840161800721,5.88015676502
16.0052862342,4.84665165492,-0.399853020277,8.17775375961
9.43048402879,5.7417414393,0.870455760167,7.09535075421
2.49568182338,2.87683122368,1.74076454061,1.37294774881
4.41087961797,4.01192100806,2.33107332105,-0.229455256591
9.20607741256,4.01701079244,1.4113821015,3.72814173801
6.05127520714,2.22210057682,0.851690881938,5.0857387326
7.69647300173,6.2071903612,1.69199966238,7.69333572721
11.9116707963,5.96228014558,0.772308442825,7.4809327218
9.51686859091,8.70736992996,1.15261722327,8.3985297164
11.0720663855,7.56245971434,3.91292600371,8.656126711
13.2472641801,11.3675494987,5.86323478416,12.1137237056
14.1824619747,12.4126392831,6.4535435646,14.8113207002
15.8976597693,16.0777290675,8.19385234504,18.2989176948
15.7128575639,17.3328188519,6.96416112548,16.9965146894
18.4780553584,18.3079086362,7.62446990593,19.604111684
16.833253153,15.6029984206,7.84477868637,17.1117086786
17.9184509476,14.648088205,9.00508746681,14.1193056732
10.6936487422,10.1331779894,7.52539624726,9.52690266779
6.5988465368,12.0782677738,8.9957050277,10.5444996624
16.3140443314,12.0533575581,10.2260138081,13.922096657
1.53003633722,4.36094840117,2.89874273256,2.79594840115
5.08055987915,1.86494429249,0.536413860784,1.54497258971
10.9510834211,1.23894018381,-2.65591501099,1.34399677828
5.16160696301,6.69293607513,-2.26824388276,3.71302096684
0.0721305049483,9.15693196645,1.59942724547,6.71204515541
1.12265404688,6.31092785777,0.197098373694,6.29106934397
6.09317758882,6.18492374909,-0.605230498079,6.87009353254
2.60370113075,-1.08108035959,-3.55755936985,2.3791177211
5.12422467268,0.95291553173,-2.38988824162,3.88814190967
6.79474821462,-1.70308857695,-1.8422171134,5.20716609823
4.70527175655,3.04090731437,-1.50454598517,5.8561902868
2.46579529849,-0.225096794307,-2.81687485694,2.68521447536
2.45631884042,2.25889909701,-1.51920372871,3.40423866392
3.79684238235,0.562894988332,-0.371532600486,5.16326285249
3.65736592428,1.79689087965,2.35613852774,6.08228704105
10.6478894662,2.80088677097,4.43380965597,5.28131122962
4.84841300815,2.69488266229,3.2814807842,4.95033541818
4.63893655009,3.96887855361,1.87915191242,5.77935960675
9.50946009202,8.88287444493,1.65682304065,8.97838379531
7.99998363396,12.1468703363,2.68449416888,9.66740798388
7.06050717589,10.8808662276,1.68216529711,8.44643217244
6.85103071782,5.15486211889,0.239836425333,3.845456361
0.921554259756,8.75885801021,1.42750755356,7.17448054957
1.40207780169,2.39285390153,0.605178681788,2.50350473814
4.93260134362,0.756849792855,1.41284981002,-0.557471073302
-0.526875114447,-1.06915431583,0.160520938243,-4.52844688473
-1.78635157251,-2.0951584245,-1.30180793353,-2.31942269617
-3.89582803058,-1.74116253318,-0.364136805301,-1.3803985076
-4.32530448864,-0.487166641864,0.0835343229246,-0.281374319042
-4.66478094671,-4.26317075054,-0.538794548847,-1.64235013048
-2.82425740478,-1.88917485922,-0.821123420619,0.306674058087
0.616266137156,-1.3751789679,-1.10345229239,0.865698246649
-0.713210320911,-3.99118307659,-1.28578116417,-4.16527756479
-8.98268677898,-6.51718718526,-0.988110035938,-6.63625337622
-7.43216323704,1.89680870606,1.02956109229,0.00277081234526
-2.00163969511,-6.14919540262,0.837232220516,-2.92820499909
-6.34111615317,-2.5551995113,-0.525096651256,-2.65918081053
-8.68059261124,-8.54120361998,-2.01742552303,-4.80015662196
-6.98006906931,-5.67720772866,-0.0697543948008,-3.6311324334
-10.6395455274,-7.17321183734,0.717916733429,-5.53210824483
-9.20902198544,-5.55921594602,0.625587861656,-5.40308405627
-9.50849844351,-11.0552200547,0.633258989883,-7.5240598677
-7.61797490157,-8.67122416338,1.24093011811,-8.61503567914
-8.78745135964,-7.67722827206,1.35860124634,-7.73601149057
-5.74692781771,-3.00323238074,2.65627237456,-2.54698730201
-4.28640427577,-5.30923648942,0.673943502792,-4.80796311345
-6.68588073384,-6.7152405981,0.61161463102,-5.91893892488
-4.6753571919,-5.28124470678,1.05928575925,-2.20991473632
-2.84483364998,3.77275118454,1.44695688747,1.89910945225
2.12568989196,0.50674707586,0.514628015702,-1.33186635919
-2.93378656611,-4.49925703282,-1.18770085607,-3.39284217062
-0.123263024172,-4.6952611415,-1.38002972784,-4.39381798206
-4.06273948224,5.00873474982,-0.192358599616,-3.69479379349
-3.5322159403,0.87273064114,-1.39468747139,-4.54576960493
-1.41169239837,-10.3032734675,-3.96701634316,-5.23674541637
-0.501168856437,-4.68927757622,-1.07934521493,-3.9377212278
-0.0806453145051,-2.1852816849,0.938325913294,-3.06869703923
0.86987822743,-0.911285793578,-0.75400295848,-0.359672850667
0.100401769363,-5.08728990226,-1.86633183025,-1.41064866211
-3.1190746887,-0.303294010937,-1.41866070202,-2.59162447354
2.97144885323,-6.37929811962,-0.520989573797,-4.73260028497
-1.00802760484,4.9346977717,3.15668155443,-1.13357609641
-3.1675040629,4.41869366302,1.19435268266,-4.57455190785
-3.37698052097,-4.69731044566,0.0320238108852,-1.93552771928
-2.43645697903,-4.31331455434,-1.15030506089,-3.02650353072
-1.0559334371,-0.939318663017,1.13736606734,-3.60747934215
-2.94540989517,-1.27532277169,1.87503719557,-4.47845515359
-2.88488635323,-1.45132688038,1.1627083238,-3.73943096502
-2.9743628113,0.922669010944,-0.639620547976,-0.16040677646
-1.51383926937,-4.71333509773,-3.09194941975,-2.90138258789
-2.72331572743,-4.61933920641,-2.01427829152,-3.75235839933
2.5872078145,1.1446566849,-1.29660716329,-0.223334210768
1.86773135643,2.28865257623,-2.07893603507,1.6156899778
4.96825489837,-3.02735153245,-3.39126490684,-0.235285833634
4.5187784403,0.256644358864,-0.593593778613,-0.146261645074
-0.0306980177629,0.750640250186,0.554077349616,-0.967237456509
-3.97017447583,0.304636141505,0.551748477843,-0.368213267942
1.3003490661,4.79863203283,2.07941960607,1.29081092063
0.870872608033,0.352627924145,-1.3629092657,-5.55016489081
-4.99860385003,-3.28337618453,-1.69523813748,-6.30114070225
-4.8480803081,-4.33938029321,-1.66756700925,-6.86211651368
-6.21755676616,-3.30538440189,-0.17989588102,-7.62309232512
-3.91703322423,4.71861148943,1.51777524721,-3.95406813655
-6.6365096823,-1.91739261925,-1.40455362456,-6.09504394799
1.29401385964,-1.84339672793,-2.42688249634,-4.70601975943
3.32453740157,3.88059916339,0.86078863189,-1.71699557086
5.50506094351,3.11459505471,1.59845976012,-1.7279713823
3.75558448544,1.95859094603,-0.493869111657,-3.51894719373
-6.53389197263,4.86258683735,0.783802016571,-4.31992300517
-5.66336843069,1.53658272867,0.541473144798,-2.3708988166
-5.45284488876,-5.02942138001,-0.280855726975,-4.56187462804
-0.162321346827,-8.54542548869,-1.28318459875,-7.55285043948
0.308202195109,-3.20142959737,0.914486529482,-6.10382625091
-3.90127426296,1.50256629395,1.16215765771,-5.58480206235
-2.64075072103,1.09656218527,1.67982878594,-2.29577787378
-3.1302271791,-0.10944192341,2.12749991416,0.403246314785
-5.43970363716,4.94455396791,1.75517104239,0.562270503349
-3.16918009522,1.43854985923,-0.22715782938,0.211294691915
-2.32865655329,2.22254575055,1.58051329885,5.75031888048
-1.52813301136,9.24654164187,4.46818442707,11.029343069
4.34239053057,2.25053753319,2.5758555553,9.89836725761
7.42291407251,0.104533424512,0.453526683528,5.51739144617
7.48343761444,0.998529315832,-0.458802188243,3.34641563474
3.83396115638,1.09252520715,-1.66113106002,2.7254398233
4.25448469831,3.68652109847,-1.47345993179,4.76446401186
5.31500824025,-1.22948301021,-0.575788803562,1.07348820043
2.38553178218,-2.43548711889,-1.86811767533,-1.15748761101
1.12605532411,1.60850877243,-1.06044654711,-1.06846342244
0.226578866044,0.872504663754,-0.902775418879,-1.50943923388
0.507102407977,5.07650055507,2.25489570935,2.46958495469
-0.712374050087,-2.85950355361,1.63256683758,-0.611390856746
-3.84185050815,-5.19550766229,0.990237965803,-0.162366668184
5.53867303378,-2.51151177097,0.05790909403,1.24665752038
4.16919657571,-2.60751587965,-2.17441977774,-0.83431829105
1.87972011765,-1.64351998833,-2.61674864951,-0.00529410249146
4.16024365958,-0.0495240970049,-1.35907752129,0.983730086075
-1.05923279849,-1.74552820569,-2.23140639306,-0.357245725358
-1.39870925655,-5.97153231436,-1.15373526483,0.811778463209
1.18181428538,-1.18753642305,-0.256064136605,4.67080265177
1.02233782731,5.25645946827,2.07160699162,11.6498268403
4.99286136925,9.6604553596,2.56927811985,11.3688510289
5.32338491118,3.91445125092,0.116949248079,6.53787521746
3.12390845312,-3.44155285776,-2.78537962369,3.11689940603
6.78443199505,7.98244303356,-1.68770849547,8.30592359459
7.24495553698,2.70643892488,-1.48003736724,4.50494778316
4.66547907891,4.6404348162,0.867633760989,4.95397197172
1.82600262085,5.08443070752,2.61530488922,4.58299616029
0.366526162783,5.79842659884,2.91297601744,5.29202034885
-6.53318313953,2.41695130815,1.80949854651,0.892983284873
-5.95472749953,2.35827638597,0.951492171758,0.365080742988
-7.85627185954,3.16960146379,1.63348579701,-0.322821798902
-6.29781621955,7.76092654162,3.25547942226,2.10927565921
-3.25936057956,4.78225161944,0.747473047515,1.45137311732
-8.73090493957,0.363576697266,-1.79053332723,-0.156529424563
0.0675507004271,3.74490177509,1.20146029802,1.07556803355
1.85600634042,6.74622685292,1.16345392327,4.45766549166
0.244461980416,5.94755193074,1.04544754852,4.07976294977
-2.34708237959,12.3088770086,2.32744117377,6.50186040788
0.711373260401,-0.399797913611,-1.61056520097,-1.586042134
-3.81017109961,6.09152716421,-0.998571575723,1.74605532411
-3.51171545962,6.41285224204,0.243422049531,2.32815278222
2.73674018037,1.23417731986,0.555415674782,-1.59974975967
0.77519582037,6.26550239769,-1.09259069997,-0.297652301553
-2.06634853964,8.66682747551,0.939402925285,1.16444515656
-2.31789289965,8.13815255334,0.951396550538,0.42654261467
-6.60943725965,1.86947763116,-0.896609824211,2.37864007278
0.569018380338,1.21080270899,-1.86461619896,-1.1092624691
-2.59252597967,0.48212778681,-1.54262257371,-3.91716501099
1.90592966032,7.75345286463,1.01937105155,1.20493244712
-5.09561469968,4.56477794246,1.0613646768,-0.332970094769
-12.3171590597,0.306103020283,2.16335830205,-3.46087263666
-0.198703419697,18.3074280981,6.6753519273,10.0912248215
-3.18024777971,2.19875317593,2.50734555255,1.31332227957
-9.97179213971,-6.61992174624,-1.5706608222,-6.82458026232
-3.85333649972,-1.69859666842,-0.148667196943,-5.12248280421
-6.82488085973,-8.55727159059,-3.24667357169,-8.6703853461
-4.09642521974,-6.37594651277,-3.14467994644,-8.21828788799
-1.63796957974,-8.53462143495,-2.77268632119,-6.60619042987
3.54048606025,2.11670364288,-0.0306926959365,1.51590702824
1.94894170024,0.158028720703,1.59130092932,1.65800448635
3.13739734024,-4.91064620147,0.133294554567,0.300101944464
3.26585298022,0.330678876353,1.03528817982,4.30219940257
6.23430862022,-0.247996045824,-0.892718194929,2.47429686069
10.2127642602,-3.006670968,-1.73072456968,2.6963943188
6.2812199002,-0.745345890175,0.811269055575,3.55849177691
5.1596755402,1.09597918765,1.56326268083,1.97058923502
3.81813118019,0.857304265475,1.10525630608,0.412686693136
4.64658682018,-2.8813706567,0.93724993133,-0.145215848752
1.44504246018,8.02995442112,1.79924355658,2.74688160936
1.02349810017,-7.80872050105,1.21123718183,-2.97102093253
1.22195374016,-1.58739542323,3.10323080709,-0.108923474418
2.31040938015,-1.2260703454,2.13522443234,-0.5668260163
5.16886502015,-10.5147452676,0.157218057589,-3.45472855819
0.657320660139,-1.83342018975,-1.08078831716,0.707368899923
-0.21422369987,-2.27209511193,-0.668794691906,0.269466358033
-2.16576805988,-4.18077003411,2.36319893335,-1.42843618385
4.22268758011,-5.57944495628,4.1851925586,-1.44633872574
3.47114322011,-7.22811987845,3.77718618385,-2.24424126763
2.2395988601,6.59320519937,4.7691798091,3.70785619048
4.57805450009,-4.26546972281,1.61117343435,1.47995364859
5.53651014009,-7.33414464498,0.103167059604,-1.24794889329
5.22496578008,-7.08281956716,0.115160684856,-1.68585143518
3.83342142007,-5.04149448933,0.197154310108,-0.683753977068
5.38187706007,-8.54016941151,-1.04085206464,-4.11165651896
-0.879667299945,-10.9888443337,-2.18885843939,-5.51955906084
-1.80121165995,-12.5675192559,-2.75686481414,-5.17746160273
8.23724398004,-10.146194178,-0.914871188885,-0.395364144621
1.83569962003,-3.70486910021,-0.782877563634,0.546733313491
-0.215844739974,8.57645597761,0.71911606162,6.2288307716
4.56261090002,-5.25221894456,-3.37889031313,2.32092822972
-0.618933459988,-5.55089386674,-1.59689668788,0.473025687828
2.79952218,-2.61956878891,-2.14490306262,1.59512314594
3.77797781999,-13.1782437111,-6.28290943737,-4.19277939595
7.82643345999,-6.28691863326,-3.41091581212,0.599318062166
7.52488909998,0.764406444561,-0.69892218687,3.08141552028
2.36334473997,-3.25426847762,-1.59692856162,-2.11648702161
6.90180037997,-1.86294339979,-1.69493493637,1.1056104365
7.97025601996,0.848381678034,0.637058688886,1.23770789462
6.33871165996,1.86970675586,-1.87094768586,4.03980535272
11.0771672999,-6.32896816632,-4.98895406061,1.90190281084
10.0656229399,0.202356911506,-1.93696043536,2.48400026895
12.9740785799,-6.42631801067,-4.51496681011,-1.31390227294
8.14253421992,-3.04499293284,-2.91297318486,-2.62180481483
1.64098985992,-4.99366785502,-4.1109795596,-5.54970735671
0.649445499908,2.0476572228,0.49101406565,0.352390101398
2.3979011399,-2.90101769937,-2.6469923091,-0.445512440489
2.77635677989,-9.05969262155,-4.69499868385,-2.27341498238
6.39481241988,-0.208367543722,-3.25300505859,2.21868247573
5.63326805988,1.2329575341,-2.72101143334,2.03077993384
0.961723699871,1.69428261193,-0.449017808091,5.29287739196
-1.63982066014,-2.48439231025,-1.42702418284,2.52497485007
-1.61136502014,-2.42306723242,-1.05503055759,1.72707230819
-0.18290938015,-9.2617421546,-2.76303693233,-3.3408302337
-6.89445374016,-6.14041707677,-0.711043307083,-1.59873277559
-5.15599810017,0.120908001049,-0.859049681832,-2.99663531748
-4.34754246017,-5.96776692113,-3.07705605658,-3.17453785937
-5.97908682018,0.233558156699,-1.30506243133,-1.18244040126
-8.08063118019,3.07488323452,-0.173068806076,-2.56034294315
-4.0221755402,-5.90379168765,-3.19107518082,-3.62824548503
-1.1837199002,2.73753339017,-1.21908155557,-1.18614802692
-4.69526426021,1.308858468,0.722912069679,-1.94405056881
-6.81680862022,8.88018354582,2.14490569493,2.9980468893
4.15164701977,2.60150862365,-0.0631006798158,3.36014434742
1.29010265976,4.17283370147,-1.41110705456,2.65224180553
-0.541441700243,6.28415877929,-0.969113429313,4.84433926364
-4.79298606025,0.0854838571195,0.402880195938,0.336436721755
-2.35453042026,0.716808934943,3.07487382119,-1.36146582013
-3.18607478026,3.44813401277,2.73686744644,-2.59936836202
-0.127619140269,1.80945909059,0.798861071695,-2.32727090391
-1.03916350028,-1.91921583158,0.500854696946,-4.2751734458
-7.70070786029,-4.83789075376,1.0528483222,-7.89307598769
-3.0322522203,-0.566565675934,2.62484194745,-1.22097852957
-13.1337965803,-1.82524059811,1.0568355727,-4.99888107146
-9.27534094031,1.21608447971,2.11882919795,-6.21678361335
-5.74688530032,4.42740955754,5.08082282321,-1.18468615524
-2.72842966032,-1.04126536464,0.382816448457,-1.52258869712
-3.52997402033,-4.60994028681,-1.59518992629,-0.620491239013
1.87848161966,2.04138479101,0.716803698961,1.2416062191
-0.633062740348,0.232709868837,-0.851202675787,-3.96629632279
-1.92460710035,4.13403494666,1.30079094946,-1.12419886468
-9.05615146036,-3.79463997551,-0.197215425284,-4.60210140656
-3.71769582037,-2.33331489769,-1.10522180003,-4.67000394845
-2.75924018037,14.0580101801,5.81677182522,4.95209350966
0.299215459618,5.97933525796,2.56876545047,3.81419096777
0.387671099608,-1.45933966422,-1.15924092428,2.94628842589
2.0861267396,4.36198541361,-0.627247299026,2.65838588399
-1.29541762041,4.34331049143,-0.775253673772,1.77048334211
-3.70696198041,5.36463556926,0.62673995148,3.00258080022
-4.77850634042,4.74596064708,-1.35126642327,0.0146782583324
-0.290050700427,1.6472857249,-0.999272798017,1.38677571644
4.77840493957,12.3386108027,2.21272082723,5.69887317456
4.04686057955,10.1599358806,2.93471445249,7.58097063267
2.18531621955,0.0112609583794,1.94670807774,5.44306809078
4.17377185954,9.4325860362,3.56870170299,7.1251655489
-0.227772500464,4.14391111403,2.80069532824,1.57726300701
-0.40931686047,-2.21476380815,2.56268895349,-4.43063953488
-28.8788590116,-15.0345494186,12.4463699128,-27.5843604651
-24.5552290961,-7.94723491004,14.8283488315,-22.6099979972
-23.1415991805,-21.0999204015,9.68032775018,-26.9356355292
-19.557969265,-16.0226058929,9.65230666888,-26.1212730613
-18.5243393495,-20.1352913844,9.10428558757,-24.8669105933
-21.0607094339,-14.0679768758,10.6162645063,-21.5925481253
-19.1370795184,-9.64066236724,10.428243425,-19.7281856574
-17.7634496029,-9.66334785868,11.2602223437,-17.1438231894
-14.0598196873,-11.2860333501,10.3622012624,-14.4594607215
-18.9061897718,-16.1087188416,10.0641801811,-17.5050982535
-14.9225598562,-8.081404333,10.4961590998,-14.3307357856
-10.5989299407,-2.08408982444,10.9081380184,-10.3163733176
-10.3653000252,-13.8167753159,2.03011693715,-13.6420108497
-15.3716701096,-11.1494608073,5.01209585584,-13.5576483817
-12.7480401941,-9.09214629875,7.35407477454,-9.70328591375
-10.7944102786,-14.6948317902,1.21605369323,-11.5989234458
-8.84078036302,-9.93751728163,2.81803261193,-8.90456097784
-11.6271504475,-4.43020277307,4.51001153062,-8.67019850989
-8.96352053195,-9.48288826451,2.30199044932,-11.8358360419
-8.27989061641,-9.58557375595,2.85396936802,-11.001473574
-8.20626070087,-0.888259247389,4.07594828671,-4.60711110603
-8.13263078533,-5.31094473883,3.47792720541,-5.13274863807
-7.4690008698,2.74636976973,3.24990612411,-1.16838617012
-4.78537095426,-5.38631572171,-0.228114957195,-4.57402370216
-7.59174103872,-11.1290012131,-1.3061360385,-5.72966123421
-9.68811112319,-0.041686704586,1.5658428802,-2.61529876626
-8.24448120765,2.20562780397,2.60782179889,-0.9309362983
-6.85085129211,5.73294231254,2.23980071759,3.75342616965
-4.69722137657,10.5502568211,5.74177963629,6.88778863761
-6.75359146104,2.81757132966,1.34375855498,0.982151105563
-1.8499615455,7.65488583822,1.47573747368,7.28651357352
2.45366837004,7.03220034678,-2.09228360763,7.17087604147
2.01729828558,3.74951485534,-3.53030468893,3.30523850943
3.16092820111,1.4268293639,-2.82832577023,0.629600977383
1.04455811665,5.27414387246,-0.106346851537,3.08396344533
3.19818803219,15.991458381,3.20563206716,10.7083259133
5.13181794772,7.47877288958,-0.372389014146,6.81268838124
8.08544786326,1.87608739814,-2.96041009545,6.8370508492
9.8190777788,8.5334019067,-3.83843117675,12.5214133172
12.8227076943,-1.26928358474,-5.16645225806,5.31577578511
13.3363376099,1.05803092382,-3.45447333936,5.73013825306
10.2899675254,14.3653454324,-2.30249442066,11.774500721
7.14359744095,-5.16734005906,-7.61051550197,-0.331136811026
10.4372273565,-2.3700255505,-6.54853658327,3.25322565693
10.470857272,-0.842711041934,-6.30655766457,6.22758812488
13.5144871876,2.93460346663,-4.48457874588,11.0919505928
14.9781171031,4.93191797519,-4.61259982718,10.1663130608
10.3117470186,3.96923248375,-6.50062090849,8.41067552875
12.5753769342,11.3565469923,0.87135801021,15.0050379967
9.94900684971,19.8238615009,-1.44666307109,17.6994004647
14.1126367652,-7.63882399057,-10.9246841524,5.61376293261
15.1662666808,3.42849051799,-9.5127052337,10.2081254006
15.7798965963,4.17580502655,-9.830726315,11.2424878685
11.2535265119,-0.0468804648881,-9.63874739631,7.47685033648
11.5071564274,6.80043404367,-7.32676847761,9.61121280443
12.9007863429,2.64774855223,-8.89478955892,8.50557527239
12.1944162585,10.3350630608,-6.40281064022,13.6099377403
13.968046174,11.3423775694,-6.89083172152,17.7543002083
14.8716760895,8.73969207791,-9.17885280283,11.0286626762
14.6553060051,10.0770065865,-9.83687388413,13.2730251442
11.7489359206,5.34432109504,-11.9248949654,12.1473876122
14.4625658362,8.1216356036,-6.70291604674,13.1817500801
14.7661957517,18.1589501122,-6.71093712804,19.0261125481
12.0398256672,0.826264620719,-14.0989582093,10.790475016
13.3534555828,8.67357912928,-8.56697929065,15.264837484
11.9970854983,6.33089363784,-9.15500037195,13.8491999519
16.4707154138,9.8682081464,-8.11302145326,14.6835624199
17.9343453294,11.435522655,-7.90104253456,18.4179248878
16.6879752449,12.6428371635,-7.81906361587,16.3722873558
16.2916051605,14.0201516721,-7.33708469717,13.2566498238
19.835235076,19.6474661806,-3.61510577847,16.5310122917
16.8888649915,12.5447806892,-9.34312685978,13.2253747597
17.5724949071,2.96209519776,-14.3611479411,13.7297372276
14.7161248226,5.46940970632,-12.5191690224,13.1140996956
16.0897547381,11.5067242149,-9.59719010369,14.8684621635
13.6333846537,10.4840387234,-7.15521118499,11.7428246315
18.5170145692,5.75135323201,-9.42323226629,11.7071870994
20.1306444848,14.8786677406,-7.6012533476,17.8615495674
19.6442744003,22.4359822491,-1.2592744289,19.2159120353
16.5979043158,22.4432967577,0.452704489795,16.7902745033
16.5115342314,-17.6493887338,-16.9253165915,-3.36536302875
12.0751641469,-0.662074225189,-8.03333767281,5.6489994392
9.59879406244,1.42524028337,-9.68135875412,4.38336190716
7.06242397798,7.03255479193,-5.92937983542,8.23772437511
4.85605389352,1.80986930049,-6.23740091673,7.40208684307
7.00968380906,8.78718380905,-2.04542199803,11.526449311
10.6833137246,13.6644983176,-1.78344307933,11.950811779
12.0769436401,12.2818128262,1.39853583936,11.2251742469
13.7605735557,13.4991273347,0.25051475806,10.8295367149
17.8142034712,-2.21355815671,-8.04750632324,7.49389918284
12.6578333867,-7.43624364814,-7.09552740455,0.308261650796
8.73146330228,12.8110708604,2.77645151415,7.44262411875
12.6050932178,21.198385369,2.37843043285,17.7069865867
3.06872313335,-2.15430012246,-3.18959064846,3.03134905466
-4.69764695111,-0.356985613902,1.42238827024,-0.104288477385
-1.31401703557,-0.509671105341,2.88436718893,2.16007399057
3.69961287997,10.0876434032,3.45634610763,7.91443645853
4.93324279551,8.93495791178,2.77832502633,6.39879892648
4.87687271104,16.4422724203,1.94030394502,8.84316139443
0.430502626579,9.5195869289,4.39228286372,7.10752386239
0.304132542115,-2.59309856254,4.56426178242,2.96188633034
3.55776245765,-8.08578405398,0.526240701112,2.2162487983
1.77139237319,-7.45846954542,-0.331780380191,-0.0393887337486
3.90502228873,5.86884496314,4.31019853851,5.18497373421
5.38865220427,3.6461594717,3.4021774572,0.60933620216
1.6222821198,-1.82652601973,4.9341563759,-2.30630132988
-2.88408796466,1.66078848883,4.81613529459,-0.761938861931
-4.44045804912,4.59810299739,4.66811421329,-1.41757639397
-9.44682813359,-11.7645824941,-0.619906868014,-6.46321392602
-9.92319821805,-10.0872679855,3.11207205068,-10.0788514581
-7.16956830251,18.1700465231,4.21405096938,3.27551100989
-8.05593838697,-0.44263896837,12.1860298881,3.19987347784
-6.99230847144,-19.7653244598,2.31800880677,-6.0957640542
-7.2386785559,0.19199004875,8.02998772547,-2.46140158625
-8.54504864036,21.2093045573,15.6419666442,0.972960881707
-16.9214187248,-15.2633809341,5.50394556286,-17.5526766503
-20.2677888093,-19.7960664256,4.44592448156,-18.6883141824
-21.2841588938,-5.86875191701,10.5179034003,-13.3139517144
-19.7605289782,-1.23143740845,13.4998823189,-11.3995892465
-19.3068990627,-13.5041228999,10.7018612376,-22.8352267785
-19.7832691471,-18.0368083913,3.06384015634,-31.3908643106
-20.4096392316,-12.1494938828,6.47581907504,-23.9365018426
-23.8160093161,-12.8421793742,6.77779799373,-20.7721393747
-31.2723794005,-27.4148648656,8.41977691243,-34.0477769067
-32.248749485,-26.3375503571,6.51175583113,-37.9234144387
-35.8851195695,-28.8302358485,10.4837347498,-38.2490519708
-35.9014896539,-34.03292134,7.83571366852,-36.9846895028
-35.5978597384,-33.6756068314,8.36769258722,-29.4003270349
-3.09712572674,33.5075145349,-4.14964026163,8.61628270348
-3.09286488852,8.62956893198,-5.51635729491,0.711984698311
-0.268604050307,-4.42837667093,-11.9630743282,-4.79231330686
-0.664343212091,13.6036777262,-4.67979136147,3.14338868796
0.709917626125,24.4457321232,-3.05650839475,5.21909068279
7.35417846435,-0.242213479667,-10.103225428,3.25479267762
6.17843930256,20.6398409174,-5.05994246132,12.0404946724
0.532700140775,14.1718953145,-3.5466594946,10.7861966673
1.25696097899,13.0739497116,-2.72337652788,11.6418986621
0.751221817209,24.9860041087,-2.31009356116,8.21760065692
-4.00451734457,1.50805850577,-8.70681059444,-1.07669734825
-0.190256506361,0.550112902865,-9.96352762772,-5.55099535342
2.72400433186,1.73216729995,-4.63024466101,-0.835293358596
4.09826517007,3.13422169704,-4.16696169429,6.61040863624
7.72252600829,7.86627609413,-4.41367872757,5.64611063106
3.44678684651,-4.07166950878,-7.95039576085,-1.03818737411
-0.148952315278,-4.06961511169,-5.67711279413,1.30751462072
5.67530852294,-7.89756071461,-5.84382982741,7.41321661554
9.72956936116,12.9544936825,1.2094531393,10.4289186104
3.61383019937,11.7865480796,-1.04726389398,3.1646206052
6.74809103759,0.828602476658,-5.68398092726,7.05032260002
7.6723518758,10.1706568737,3.85930203946,12.9160245948
3.11661271402,0.742711270837,-1.15741499382,3.32172658968
7.09087355224,-16.1652343321,-10.5741320271,-3.5825714155
7.25513439046,0.906820065014,-9.44084906038,1.66313057933
6.98939522867,11.8588744621,-1.55756609366,7.29883257416
5.86365606689,-12.2390711408,-8.17428312695,-0.0754654310149
5.0379169051,-12.2870167437,-7.09100016023,0.59023656381
8.94217774332,7.62503765337,-2.04771719351,7.29593855864
5.03643858154,-2.05290794954,-1.58443422679,-2.79835944653
3.70069941975,-4.70085355245,-1.92115126007,-1.95265745171
3.98496025797,-2.52879915537,0.802131706647,1.93304454312
1.25922109618,-7.15674475828,-0.574585326634,0.0387465379463
-3.4465180656,-8.81469036119,1.63869764008,-4.85555146723
2.77774277262,-13.6526359641,-3.8480193932,2.6301505276
5.02200361083,12.429418433,-0.474736426479,5.33585252243
2.92626444905,8.61147283007,2.23854654024,3.61155451725
2.69052528727,-13.5064727728,-3.68817049304,-5.66274348792
5.98478612549,-8.34441837575,2.45511247368,-1.61704149309
8.2290469637,29.0676360213,9.52839544039,14.7686605017
7.76330780192,-8.95030958157,-6.09832159289,-4.68563750344
3.59756864013,-29.2282551845,-6.99503862617,-17.7999355086
5.70182947835,-11.4362007874,-5.28175565945,-10.5842335138
-1.37390968343,-18.2341463903,-0.458472692731,-10.718531519
-3.48964884522,-8.92209199322,4.02481027399,-5.66282952413
-4.455388007,-11.2200375961,2.13809324071,-13.8871275293
-5.66112716878,-3.51798319904,4.44137620742,-8.95142553447
-4.95686633057,-13.215928802,-2.96534082586,-5.35572353965
-2.51260549235,-17.6038744049,3.43794214086,-0.0100215448219
-4.51834465414,26.1581799922,9.49122510758,3.09568045001
-2.85408381592,-14.4997656107,2.2045080743,-6.53861755517
-1.7298229777,-15.0677112136,2.50779104102,-9.35291556034
-5.36556213949,-17.8856568165,5.20107400774,-13.7972135655
-3.79130130127,2.56639758058,8.70435697445,-4.86151157069
-1.78704046306,-8.93154802233,4.54763994117,-6.04580957586
-2.67277962484,-15.9094936252,2.03092290789,-9.67010758103
-1.70851878662,-1.13743922816,9.20420587461,-1.0844055862
-10.9742579484,-10.5253848311,5.93748884133,-11.3187035914
-13.8499971102,-27.293330434,2.31077180805,-17.3330015966
-13.035736272,-15.0212760369,1.14405477477,-9.14729960173
-11.7314754338,-0.949221639803,7.36733774149,-9.2615976069
-13.1972145955,-2.66716724271,6.5606207082,-19.7958956121
-10.5729537573,-21.1551128456,2.52390367492,-11.3701936172
-11.8886929191,-21.5630584485,6.85718664164,-7.20449162242
-13.5944320809,-1.34100405145,11.0104696084,-8.03878962759
-7.98017124267,-6.56894965436,11.0037525751,-4.45308763276
-8.03591040445,-5.14689525727,10.3270355418,-4.85738563794
-6.24164956624,-9.93484086019,4.53031850852,-6.38168364311
-7.63738872802,0.547213536904,7.34360147523,2.33401835172
-6.96312788981,-10.050732066,11.406884442,-2.85027965346
-5.49886705159,-10.0486776689,8.25016740867,-2.51457765863
-5.44460621338,17.2633767282,11.2534503754,5.5511243362
-3.58034537516,19.0854311253,13.7767333421,9.01682633103
-3.48608453694,-12.8125144777,6.64001630883,-1.48747167414
-3.59182369873,2.71953991943,10.1632992755,4.70823032068
-3.57756286051,-8.83840568348,4.52658224226,-7.00606768449
-9.74330202229,-13.0463512864,6.86986520898,-5.82036568966
-6.24904118408,8.9457031107,11.2831481757,3.45533630516
-0.804780345861,3.33775750779,10.0564311424,7.99103829999
1.34948049236,-4.42018809512,5.88971410914,3.13674029482
0.603741330571,11.801866302,11.2429970759,1.26244228964
-1.76199783121,7.86392069905,11.0662800426,4.68814428447
1.082263007,1.62597509614,8.94956300929,5.6838462793
1.58652384522,5.30802949323,12.232845976,6.48954827412
0.300784683437,11.4100838903,13.4361289427,10.5852502689
-1.57495447835,5.93213828741,10.7494119094,2.60095226378
-2.68069364013,29.4641926845,16.0826948762,6.3566542586
-7.98643280191,-19.1137529184,2.30597784289,-3.69764374657
-9.1021719637,-5.86169852133,0.269260809606,-1.17194175174
-9.06791112548,-14.9196441242,0.532543776324,-7.76623975691
-4.61365028726,4.95241027285,2.86582674304,-4.82053776209
-5.27938944905,2.44446466994,1.18910970976,4.12516423274
-6.40512861083,-2.00348093297,-0.11760732352,2.27086622757
-3.38086777262,-4.67142653589,0.215675643198,3.85656822239
-9.2966069344,2.8806278612,1.96895860992,-4.12772978278
-5.01234609618,7.62268225829,3.55224157664,4.43797221205
-3.86808525797,-3.11526334462,6.69552454335,-0.996325793127
-5.31382441975,-4.88320894753,3.40880751007,-5.2606237983
-1.38956358153,1.05884544956,0.76209047679,-3.74492180347
-2.68530274332,8.72089984664,5.74537344351,3.25078019136
-1.0210419051,14.1729542437,11.0786564102,8.79648218619
-2.95678106689,-7.35499135918,-2.82806062305,-5.99781581899
1.07747977133,24.5570630379,1.76522234366,4.27788617584
2.96174060955,-15.470882565,-2.60149468962,-7.49641182934
2.50600144777,-20.3488281679,-2.6082117229,-9.98070983451
5.75026228598,7.74322622917,1.79507124382,7.72499216032
8.6845231242,-14.4147193737,-0.65164578946,3.47069415514
4.31878396242,18.1773350234,-1.99836282274,4.56639614997
7.45304480063,5.80938942044,-1.35507985602,-1.1279018552
5.47730563885,7.33144381753,-4.7617968893,0.947800139624
4.83156647706,-7.64650178538,-7.48851392259,-4.39649786555
6.65582731528,7.34555261171,-6.58523095587,5.72920412928
4.8500881535,9.50760700879,-0.421947989149,5.3049061241
7.76434899171,6.12966140588,-5.85866502243,5.02060811894
4.14860982993,2.55171580297,-4.96538205571,3.24631011376
2.59287066814,12.2737702001,-7.68209908899,2.91201210859
2.31713150636,-0.804175402853,-5.89881612228,-4.46228589658
4.00139234458,-1.12212100576,-8.78553315556,1.73341609824
4.9456531828,-5.31006660868,-12.1222501888,-0.680881906934
4.28991402101,6.54198778841,-5.82896722212,6.5548200879
7.53417485923,23.3240421855,-3.5256842554,17.5105220827
7.85843569744,-3.86390341741,-13.0824012887,3.51622407755
9.90269653566,32.9481509797,-13.669118322,5.48192607238
11.4469573739,-9.38979462323,-19.6158353552,1.1976280672
6.3812182121,-6.41774022614,-13.0125523885,-0.186669937972
3.24547905031,4.95431417094,-16.6992694218,4.58903205686
6.08973988852,2.22636856803,-19.5259864551,2.13473405168
9.67400072674,3.87842296512,-17.7927034884,1.33043604651
48.2420309678,25.1232683871,-8.02845032258,22.1743664516
43.7389242486,12.2214620299,-9.6610391188,14.0710185051
39.1658175295,12.3996556727,-7.75362791503,18.1676705586
