-13.17265625,-20.4947020349,-0.868204941862,-16.7202652616
-10.720800935,-20.7778304969,-4.87632130105,-19.0246004052
-11.8689456201,-22.580958959,-6.48443766023,-22.8589355487
-15.3970903051,-19.244087421,-3.76255401941,-22.4132706922
-17.2352349901,-19.2872158831,-1.9706703786,-21.6076058357
-13.3833796752,-18.8303443451,-1.45878673778,-22.8319409792
-14.0215243602,-19.2534728072,-2.75690309696,-22.9462761227
-11.1496690453,-18.2466012692,-1.92501945615,-21.9506112663
-8.36781373031,-18.8597297313,-0.783135815329,-22.1049464098
-7.48595841535,-14.8628581933,-2.82125217451,-14.5492815533
-5.91410310039,-17.9559866554,-4.49936853369,-13.3436166968
-4.00224778542,-17.7291151174,-5.72748489288,-18.2079518403
-6.72039247046,-16.8122435795,-2.84560125206,-19.7922869838
-4.8085371555,-16.8953720415,-5.08371761124,-13.7566221274
-1.24668184054,-16.3985005036,-2.60183397043,-14.6509572709
6.71517347442,-8.43162896561,2.14004967039,-7.9152924144
0.317028789377,-4.07475742766,-0.548066688795,-1.89962755792
-0.281115895661,1.38211411029,-1.95618304798,1.36603729857
-0.0492605807012,4.18898564824,1.97570059284,3.60170215505
0.0725947342617,5.57585718619,2.42758423365,1.56736701153
7.62445004922,2.34272872414,2.64946787447,3.27303186801
11.2963053642,2.00960026209,2.51135151529,2.6886967245
12.3581606791,4.94647180004,3.18323515611,2.71436158098
11.5600159941,3.69334333799,4.34511879692,2.94002643746
10.8318713091,2.58021487594,2.17700243774,1.11569129394
12.203726624,3.68708641389,0.948886078555,2.86135615043
8.32558193899,4.38395795185,-0.839230280629,8.69702100691
0.667437253942,1.8808294898,2.89265336019,2.68268586339
0.499292568904,1.79770102775,4.14453700101,-2.34164928013
0.651147883866,3.2145725657,3.60642064182,0.254015576355
-2.06699680118,3.75144410365,2.68830428264,1.66968043284
-1.05514148621,3.7383156416,2.06018792346,2.18534528932
-1.11328617125,3.11518717955,0.992071564273,2.5410101458
-3.31143085629,1.6520587175,0.293955205089,0.776675002286
-1.71957554133,2.65893025545,0.965838845906,4.20233985877
-1.74772022637,5.1858017934,1.03772248672,9.81800471525
0.894135088591,4.07267333136,0.939606127539,12.8136695717
4.63599040355,9.28954486931,2.60148976836,14.4193344282
2.23784571851,13.1164164073,4.54337340917,15.6149992847
6.26970103347,11.4632879452,2.10525704999,12.4406641412
7.69155634843,10.8201594832,0.317140690806,8.06632899766
11.9034116634,11.8570310211,1.69902433162,13.6119938541
8.10526697835,11.1439025591,0.560907972439,14.3476587106
7.75712229331,10.460774097,1.74279161326,13.4333235671
7.83897760827,8.33764563496,4.71467525407,12.4089884236
5.61083292323,12.4545171729,7.06655889489,14.0246532801
5.3326882382,14.5613887109,3.48844253571,18.0703181366
12.6345435532,12.1782602488,3.71032617652,16.735982993
15.6763988681,11.0651317868,5.43220981734,13.2716478495
12.2282541831,11.8720033247,5.67409345816,13.157312706
3.50010949804,8.54887486267,6.07597709897,13.7929775625
5.49196481299,8.10574640062,4.24786073979,12.628642419
6.31382012796,6.52261793857,2.49974438061,4.36430727545
0.265675442919,4.38948947652,-1.00837197858,4.13997213193
-1.96246924212,4.70636101447,-1.27648833776,4.34563698842
0.419386072841,2.40323255242,1.44539530306,4.4613018449
2.5112413878,4.15010409037,-0.832721056127,5.42696670138
1.06309670276,6.88697562832,-0.30083741531,8.24263155786
4.02495201772,9.55384716627,-0.788953774493,10.5282964143
7.27680733268,10.7207187042,-1.94707013368,11.1739612708
7.88866264765,8.86759024217,-1.34518649286,10.0596261273
4.0305179626,8.80446178012,-3.74330285204,11.6052909838
3.64237327756,8.54133331808,-5.46141921123,10.4209558403
2.59422859252,5.32820485603,-3.20953557041,4.94662069676
0.236083907483,3.79507639398,-3.51765192959,4.99228555324
0.00793922244338,5.02194793193,-2.93576828878,8.14795040972
1.4197945374,5.72881946988,-3.81388464796,6.3436152662
0.331649852367,6.04569100783,-3.63200100714,2.11928012269
-0.526494832673,5.91256254578,-5.91011736633,5.61494497917
-3.48463951771,8.61943408373,-2.19823372551,6.44060983565
-7.54278420275,10.0363056217,0.703649915308,6.88627469213
-3.67092888779,9.86317715963,0.415533556125,5.06193954862
-4.01907357283,8.82004869758,-0.192582803059,4.2576044051
-4.47721825787,5.51692023554,-0.0606991622426,5.73326926158
-5.62536294291,4.29379177349,1.75118447857,2.80893411806
0.666492372049,7.74066331144,1.08306811939,5.45459897455
7.12834768701,13.4175348494,-1.66504823979,11.310263831
6.85020300197,14.5844063873,0.116835401024,12.4259286875
4.58205831693,10.9912779253,0.878719041842,8.07159354399
2.33391363189,2.85814946324,-1.62939731734,1.90725840048
-2.52423105315,0.525021001191,-4.05751367653,-2.60707674304
-3.39237573819,1.53189253914,-1.69563003571,-1.44141188656
-2.17052042322,1.89876407709,-1.78374639489,0.244252969922
-4.08866510827,0.515635615044,-3.86186275408,0.779917826405
-9.50680979331,1.01250715299,-3.16997911326,0.515582682887
-10.0949544783,1.30937869094,-2.00809547244,0.58124753937
-8.34309916339,2.6062502289,-1.33621183163,-2.43308760415
-4.27124384842,2.99312176685,-3.26432819081,-0.667422747667
0.190611466536,4.8299933048,-4.51244454999,1.07824210882
-0.627533218503,6.30686484275,1.71943909082,4.8439069653
1.32432209646,9.1337363807,3.13132273164,9.19957182178
6.32617741142,11.7306079187,-1.24679362754,11.2852366783
6.77803272638,10.2574794566,0.0250900132751,9.68090153474
-0.920111958658,11.3343509946,1.49697365409,6.79656639123
0.00174335629708,6.8512225325,1.22885729491,3.49223124771
1.20359867126,8.77809407045,4.22074093573,3.80789610419
-3.61454601378,10.4149656084,4.22262457654,4.14356096067
-5.37269069882,7.56183714635,2.21450821736,3.35922581716
-4.11083538386,2.0387086843,-0.0936081418249,0.344890673639
-4.9089800689,3.29558022226,0.488275498992,1.94055553012
-6.16712475394,6.79245176021,4.15015913981,2.9962203866
1.84473056102,2.79932329816,1.96204278063,-2.38811475691
5.67658587599,0.566194836112,-0.836073578558,-1.58244990043
3.66844119094,1.48306637406,0.755810062259,4.85321495605
-3.78970349409,1.70993791201,1.95769370308,0.318879812534
-0.577848179131,0.756809449962,-1.12042265611,-2.29545533098
1.89400713582,3.49368098791,1.31146098471,3.6602095255
3.04586245078,3.76055252586,5.26334462553,4.88587438198
1.79771776574,0.977424063814,3.16522826634,5.27153923846
0.089573080706,-4.65570439824,3.90711190716,0.447204094946
0.0114283956682,-9.20883286028,-0.431004452023,-6.34713104857
5.67328371063,-8.89196132233,-2.15912081121,-8.76146619209
4.16513902559,-7.72508978438,-2.89723717039,-7.65580133561
-3.51300565945,-9.34821824643,0.794646470426,-8.42013647912
2.03884965551,-11.2213467085,0.776530111243,-8.95447162264
1.09070497047,-12.0644751705,-0.721586247941,-11.8588067662
0.272560285433,-12.9776036326,-3.64970260712,-13.6431419097
-0.99558439961,-13.3307320946,-2.24781896631,-11.1074770532
-1.56372908465,-14.8438605567,1.03406467451,-9.61181219671
-3.72187376969,-16.8269890187,-0.254051684674,-13.1161473402
-2.19001845473,-15.3901174808,-1.17216804386,-10.6804824837
-5.84816313977,-16.9732459428,0.16971559696,-11.6848176273
-5.05630782481,-19.3363744049,-0.168400762223,-15.9691527708
-4.89445250984,-22.1495028669,0.943482878593,-19.8534879143
-2.44259719488,-19.332631329,-2.02463348059,-16.3678230578
-4.80074187992,-17.845759791,-2.11274983977,-16.4721582013
-6.13888656496,-20.6388882531,-2.72086619896,-21.3864933449
-7.81703125,-19.0220167151,-2.96898255814,-21.3908284884
-5.23313226743,-6.54445130813,-1.87836119186,-4.74961482559
-4.59524829472,-8.20633248832,-2.00213823018,-6.60536031062
-2.047364322,-7.9482136685,-3.8859152685,-5.89110579565
-4.70948034929,-7.08009484869,-6.84969230681,-7.59685128068
-3.78159637657,-4.49197602888,-5.85346934513,-6.84259676571
0.216287596144,-4.12385720907,-1.12724638345,-4.26834225074
-2.82582843114,-4.90573838925,2.21897657824,-5.45408773576
-5.24794445842,-5.85761956944,0.985199539919,-5.1198332208
-7.02006048571,-3.93950074962,1.1514225016,-3.62557870583
-8.18217651299,-2.63138192981,1.14764546328,-5.01132419086
-6.22429254028,-4.93326311,-0.456131575034,-7.65706967589
-3.07640856757,-6.37514429018,-0.529908613351,-7.21281516092
-6.27852459485,-7.22702547037,-2.23368565167,-6.67856064595
-8.38064062213,-4.03890665056,-1.17746268999,-3.54430613098
-8.52275664942,-1.59078783075,0.558760271698,-0.910051616007
-6.1348726767,-5.26266901094,-1.05501676662,-2.45579710104
-8.03698870399,-6.04455019112,1.06120619506,-5.63154258607
-10.0991047313,-4.89643137131,0.847429156746,-5.1472880711
-9.00122075856,-5.07831255149,-0.386347881571,-3.76303355613
-6.70333678584,-6.22019373168,2.85987508011,-4.96877904116
-7.15545281312,-7.82207491187,0.416098041796,-6.15452452619
-2.64756884041,-8.83395609205,-1.66767899652,-4.30027001122
-0.199684867694,-10.7858372722,-1.43145603484,-4.30601549625
2.12819910502,-10.2477184524,-1.33523307316,-5.04176098128
2.45608307774,-9.18959963262,-2.22901011147,3.06249353369
-2.03603294955,-10.1114808128,-2.82278714979,0.02674804866
0.461851023167,-6.80336199299,-1.87656418811,-0.13899743637
2.68973499589,-1.22524317318,-0.410341226425,1.1352570786
3.7976189686,0.642875646638,-3.32411826474,0.61951159357
5.54550294131,5.96099446645,-0.647895303059,5.51376610854
7.19338691403,7.17911328627,5.06832765862,4.50802062351
8.50127088674,5.62723210608,4.96455062031,4.59227513848
8.63915485946,6.42535092589,3.59077358199,5.23652965345
6.57703883218,6.2234697457,1.43699654367,4.07078416842
2.23492280489,2.75158856552,1.92321950535,2.26503868339
3.28280677761,0.92970738533,2.82944246704,0.759293198358
4.55069075032,3.53782620514,-0.0643345712797,0.533547713329
2.39857472304,3.17594502496,-0.738111609597,-0.0721977717021
-0.0435413042433,2.68406384477,-0.371888647914,-1.45794325673
2.97434266847,2.42218266458,-1.36566568623,-2.55368874176
1.78222664119,-0.109698515604,-0.00944272454763,-1.39943422679
-2.5798893861,-0.291579695793,3.19678023714,-2.51517971182
-5.42200541338,1.46653912402,2.85300319882,-1.76092519685
-2.16412144067,2.96465794383,1.4192261605,-2.36667068188
0.603762532046,4.69277676365,0.495449122184,1.29758383309
-0.138353495237,8.96089558346,2.22167208387,6.57183834806
5.84953047748,7.45901440327,4.53789504555,3.77609286303
4.02741445019,7.69713322309,4.08411800723,5.000347378
5.34529842291,5.1152520429,2.31034096892,0.354601892966
4.78318239563,8.10337086271,3.4865639306,1.88885640794
5.34106636834,8.16148968253,1.89278689228,7.7031109229
1.92895034105,4.53960850234,2.74900985396,7.04736543787
1.95683431377,3.32772732215,0.755232815646,6.11161995285
5.14471828649,1.95584614197,0.991455777329,4.00587446782
8.6226022592,1.36396496178,-0.922321260988,-2.42987101722
2.18048623192,1.69208378159,0.433901700695,-4.44561650225
2.73837020463,1.04020260141,3.04012466238,0.288638012724
4.65625417735,0.138321421215,2.02634762406,4.40289252769
7.02413815007,4.11644024103,0.202570585744,7.88714704266
8.87202212278,7.66455906084,0.508793547427,9.62140155763
10.2499060955,4.63267788066,-1.15498349089,7.2756560726
3.29779006821,4.20079670047,0.0412394707928,3.80991058757
2.03567404093,3.12891552029,3.11746243248,1.46416510254
7.38355801364,6.6770343401,3.49368539416,4.71841961751
6.68144198636,7.38515315991,-0.120091644158,4.36267413248
12.8893259591,7.10327197972,-1.75386868248,7.55692864745
16.8672099318,9.33139079954,1.00235427921,8.18118316242
13.0350939045,10.7195096193,0.81857724089,8.28543767739
7.56297787722,7.75762843916,-1.85519979743,7.27969219236
3.57086184993,10.275747259,-1.38897683574,5.64394670733
4.12874582265,9.01386607879,0.907246125937,5.7582012223
3.47662979536,6.3519848986,-0.0665309123797,7.23245573727
-1.53548623192,7.37010371841,0.569692049304,6.19671025224
-1.4276022592,6.26822253823,1.45591501099,3.56096476721
0.850281713512,2.64634135804,-1.54786202733,0.38521928218
4.10816568623,3.42446017786,-1.98163906565,1.80947379715
2.69604965894,5.18257899767,-2.79541610397,6.21372831212
3.67393363166,4.75069781748,-1.12919314228,5.69798282709
6.08181760438,5.47881663729,-1.7129701806,7.70223734206
2.67970157709,8.66693545711,-1.99674721892,9.51649185703
0.847585549807,4.34505427692,-2.79052425723,3.100746372
-1.01453047748,1.95317309673,-2.63430129555,0.925000886969
-2.11664650476,3.39129191655,-1.59807833387,4.34925540194
-2.36876253205,3.56941073636,-2.28185537218,3.00350991691
1.00912144067,5.19752955617,-2.5956324105,5.45776443188
2.04700541338,4.78564837599,-3.38940944882,8.99201894685
0.8148893861,2.2337671958,-3.33318648714,7.57627346182
5.82277335881,3.36188601561,-1.90696352545,6.79052797679
4.21065733153,7.56000483542,3.05925943623,6.61478249176
0.468541304246,10.0581236552,4.26548239791,5.28903700673
-0.18357472304,8.43624247505,2.04170535959,7.2532915217
-4.83569075032,4.79436129486,0.687928321277,4.79754603667
-7.61780677761,2.81248011468,-0.0758487170397,1.42180055164
-2.58992280489,-2.21940106551,-2.49962575536,-1.49394493339
-4.98203883218,-4.8612822457,-5.55340279367,-3.09969041842
-11.3641548595,-5.36316342588,-4.77717983199,-5.60543590345
-11.0262708867,-3.84504460607,1.51904312969,-7.67118138848
-5.37838691403,-0.726925786257,2.35526609138,-3.77692687351
-8.71050294131,-1.42880696644,1.39148905306,-0.452672358544
-7.0826189686,1.00931185337,1.17771201474,0.011582156425
-1.23473499588,1.21743067318,-0.796065023576,1.8458366714
3.90314897683,-1.69445050701,-3.50984206189,-2.10990881363
1.91103294955,-1.49633168719,-1.04361910021,-0.505654298664
0.518916922265,0.68178713262,0.00260386147238,2.23860021631
1.45680089498,2.66990595244,0.658826823155,2.17285473127
-0.0953151323047,1.11802477225,1.07504978484,-1.78289075376
-3.27743115959,-0.783856407939,1.02127274652,-1.22863623879
-6.78954718688,-0.455737588127,1.0374957082,0.465618276183
-1.09166321416,-0.0576187683146,-2.99628133011,-0.560127208844
0.826220758554,0.330500051503,-2.04005836843,-1.88587269388
-4.65589526873,-1.66138112869,2.08616459325,-2.33161817891
-7.04801129601,-2.71326230888,4.44238755493,-3.18736366394
-6.9901273233,-4.73514348906,4.42861051662,-4.50310914897
-2.83224335058,-2.01702466925,2.6348334783,-3.638854634
-2.14435937787,-1.70890584943,1.55105643998,-1.82460011903
-2.21647540515,-3.17078702962,2.36727940167,-0.820345604057
-4.63859143243,-3.82266820981,3.43350236335,-2.63609108909
1.03929254028,-4.56454938999,1.83972532503,-3.51183657412
-6.232823487,-5.57643057018,1.11594828672,-2.03758205915
-3.88493951429,-7.81831175037,1.4821712484,-4.09332754418
-2.34705554157,-10.2001929306,0.208394210081,-4.63907302921
-0.699171568856,-11.2820741107,-1.43538282824,-8.34481851424
1.03871240386,-10.1839552909,-2.69915986655,-11.1205639993
-0.663403623425,-11.8058364711,-2.86293690487,-14.9263094843
-1.83551965071,-9.2877176513,-0.656713943187,-10.5020549693
0.662364322005,-10.8095988315,-2.6104909815,-8.68780045436
-0.83975170528,-14.5514800117,-4.03426801982,-10.0135459394
-2.11186773256,-16.2533611919,-3.27804505814,-14.1692914244
2.39841206396,-13.4954215116,2.01224927325,10.551809593
9.02907437398,-16.5088572949,1.09747221777,7.60898951085
8.959736684,-18.1222930782,-1.14730483772,2.91616942867
8.75039899401,-19.3257288615,-0.0420818931998,2.7833493465
7.33106130403,-17.2491646448,-2.30685894868,5.08052926432
8.82172361404,-16.822600428,-1.73163600417,4.52770918215
8.04238592406,-16.4460362113,-0.316413059653,3.99488909998
5.61304823408,-12.6894719946,0.318809884862,5.7620690178
2.90371054409,-14.7829077779,1.65403282938,8.44924893563
3.52437285411,-18.6563435612,0.449255773894,7.08642885346
-0.774964835873,-20.2597793444,-3.13552128159,0.133608771283
-3.70430252586,-15.4332151277,-1.85029833707,3.15078868911
-5.14364021584,-14.356650911,2.90492460744,2.52796860694
-2.26297790583,-20.0600866943,2.33014755196,-2.72485147524
-1.84231559581,-17.8435224776,4.17537049647,-1.10767155741
-4.13165328579,-13.4169582608,6.82059344099,4.72950836041
-0.180990975776,-9.06039404413,7.1458163855,9.57668827824
-3.27032866576,-6.42382982741,7.34103933002,12.6638681961
-3.04966635574,-6.41726561069,8.77626227453,9.87104811389
-2.69900404573,-8.94070139397,10.8214852191,5.17822803172
-1.15834173571,-9.61413717725,9.42670816357,4.89540794955
2.8523205743,-12.4275729605,4.94193110808,3.04258786737
-6.20701711568,-14.2610087438,4.3271540526,5.9497677852
-9.58635480567,-18.5344445271,2.42237699711,-2.97305229697
-5.05569249565,-19.1978803104,2.24759994163,-6.49587237915
-4.76503018563,-16.9013160937,1.32282288614,-3.02869246132
-3.18436787562,-14.9947518769,0.54804583066,-2.25151254349
-4.0837055656,-16.0481876602,2.77326877518,-4.46433262567
-9.21304325558,-16.6916234435,2.58849171969,-2.78715270784
-3.04238094557,-16.0250592268,1.32371466421,-3.15997279002
3.02828136445,-14.8384950101,-0.0310623912774,-1.64279287219
0.648943674467,-10.6819307934,-0.0158394467617,-1.30561295436
0.0396059844825,-12.6653665766,-0.160616502246,-3.66843303654
-1.6597317055,-16.6288023599,-2.16539355773,-5.19125311871
1.64093060452,-15.9322381432,-4.19017061321,-8.82407320088
2.41159291453,-14.2056739265,-3.5249476687,-5.31689328306
1.20225522455,-9.77910970976,1.40027527582,3.11028663477
6.72291753456,-4.32254549304,1.63549822033,6.5374665526
7.81357984458,-5.37598127632,1.07072116485,4.09464647042
3.7342421546,-5.1794170596,-1.00405589064,3.43182638825
3.54490446461,-5.49285284289,-4.56883294612,1.93900630608
8.55556677463,-6.73628862617,-4.8436100016,-1.1038137761
4.96622908465,-10.4497244094,-4.96838705709,-5.61663385827
5.09689139466,-8.50316019273,-5.20316411257,1.22054605956
0.977553704681,-8.21659597601,-6.06794116806,-1.50227402262
-1.0617839853,-7.38003175929,-5.56271822354,-3.71509410479
3.33887832471,-3.94346754257,-6.10749527903,-2.76791418696
1.26954063473,-3.84690332585,-1.36227233451,-3.17073426914
2.34020294474,-2.69033910914,-0.747049389995,1.68644564869
1.53086525476,-1.63377489242,-2.59182644548,0.363625566515
4.74152756478,4.3127893243,-0.206603500964,3.32080548434
5.43218987479,7.88935354102,2.99861944355,9.48798540217
5.42285218481,3.19591775774,-0.206157611933,2.94516531999
4.92351449483,1.02248197445,0.249065332583,1.15234523782
5.74417680484,-2.55095380882,-2.3557117229,-3.09047484435
2.41483911486,0.135610407891,-2.90048877839,-2.06329492653
4.61550142488,-1.00782537539,-2.98526583387,-0.556115008701
4.92616373489,-1.76126115867,-3.84004288935,-4.98893509087
2.6168260449,-2.18469694195,-4.14481994484,-9.67175517305
-4.78251164508,-2.96813272523,-5.42959700032,-11.6145752552
-4.66184933506,-4.02156850851,-9.50437405581,-14.1873953374
-3.16118702505,-4.84500429179,-9.73915111129,-13.6502154196
-8.80052471503,-4.90844007508,-7.40392816678,-16.1030355017
-14.329862405,-5.22187585836,-8.71870522226,-17.9858555839
-10.179200095,-2.72531164164,-8.90348227774,-19.5886756661
-9.46853778498,3.65125257508,-9.96825933323,-18.0914957483
-7.21787547496,12.7478167918,-7.29303638871,-13.0143158304
-6.52721316495,37.2643810085,-5.3378134442,-11.0671359126
-5.28655085493,110.540945225,-4.07259049968,-7.35995599478
-8.48588854491,150.587509442,-0.0173675551659,-6.14277607696
-7.1952262349,148.314073659,0.0978553893501,-4.69559615913
-6.44456392488,137.880637875,1.70307833387,-2.3184162413
-1.71390161486,124.887202092,3.69830127838,0.448763676523
2.68676069515,107.593766309,0.713524222897,-2.09405640565
-1.74257699483,91.8603305255,0.588747167412,-2.15687648782
-3.51191468482,80.2368947423,1.07397011193,-0.299696569997
-4.0612523748,71.253458959,-1.37080694356,-0.212516652171
-6.19059006478,57.3500231757,-4.46558399904,-5.99533673434
-2.76992775477,48.1365873924,-4.48036105452,-9.52815681652
-4.04926544475,41.4131516091,-3.77513811001,-5.90097689869
-4.61860313474,38.5497158259,-3.17991516549,-2.28379698087
-1.37794082472,33.5662800426,-4.84469222098,2.17338293696
-0.517278514701,33.1028442593,2.11053072354,5.93056285479
3.99338379531,31.019408476,3.62575366805,10.0877427726
8.12404610533,30.9059726927,2.83097661257,14.8949226904
5.14470841535,26.3025369095,1.80619955708,8.59210260827
2.83537072536,18.8891011262,0.1214225016,2.91928252609
-3.00396696462,12.4756653429,0.0266454461162,2.51646244392
-1.3133046546,3.98222955961,2.15186839063,-1.95635763825
-5.54264234459,3.21879377633,3.57709133515,-3.22917772043
-9.19198003457,0.265357993041,2.94231427966,-6.4419978026
-11.6113177246,-0.82807779024,2.29753722418,-6.41481788477
-11.3706554145,-0.621513573522,2.29276016869,-3.21763796695
-9.40999310452,-5.1349493568,2.47798311321,-2.52045804912
-8.18933079451,-6.89838514008,3.34320605773,-0.283278131294
-1.83866848449,-9.13182092337,3.08842900224,1.61390178653
0.851993825523,-9.04525670665,-0.0563480532428,-0.108918295642
-2.52734386446,-10.1586924899,3.25887489127,1.39826162219
0.153318445558,-10.4321282732,6.15409783579,-0.0545584599895
-3.40601924442,-9.75556405649,5.8993207803,0.282621457838
-5.60535693441,-11.5289998398,3.20454372482,-0.810198624336
-6.1946946244,-11.9024356231,4.19976666934,-0.0730187065092
-8.03403231438,-15.0558714063,7.27498961385,2.29416121132
-5.42337000436,-14.0693071896,5.85021255837,8.04134112914
0.187292305654,-15.4827429729,3.76543550288,6.32852104697
0.717954615673,-19.3461787562,0.830658447398,3.8657009648
4.70861692569,-20.7696145395,-0.594118608085,4.49288088262
2.6492792357,-24.1230503227,-0.868895663571,3.38006080045
2.65994154572,-26.586486106,-1.66367271905,-1.31275928172
-2.74939614426,-26.1799218893,-1.45844977454,-2.3355793639
-0.318733834247,-26.4533576726,0.386773169977,0.931600553929
6.00192847577,-25.6667934559,2.41199611449,2.87878047176
6.46259078578,-26.0402292392,3.13721905901,3.68596038958
2.0132530958,-28.1436650224,1.16244200352,2.03314030741
2.83391540582,-32.5271008057,-1.40233505196,4.58032022523
6.71457771584,-34.130536589,-2.19711210745,3.77750014306
3.66524002585,-34.0839723723,-2.29188916293,-0.585319939113
6.99590233587,-31.9174081556,-2.25666621841,4.92185997871
14.1665646459,-30.6908439388,2.5585567261,7.89903989654
11.7472269559,-29.1242797221,0.333779670617,3.80621981437
9.11788926592,-27.6077155054,-0.330997384867,5.59339973219
7.86855157593,-31.0711512887,1.29422555965,3.85057965002
4.83921388595,-31.734587072,2.57944850416,4.43775956785
4.18987619597,-32.6080228552,1.83467144868,6.45493948567
6.10053850598,-37.2814586385,1.8198943932,3.6321194035
1.72120081599,-38.4648944218,1.40511733771,2.69929932132
-1.19813687398,-36.6483302051,-1.52965971777,4.01647923915
3.02252543603,-39.6017659884,-1.61443677326,2.59365915698
-11.1586337209,3.59545421513,0.931504360462,-0.691617005814
-3.34015130012,6.46993894205,0.637284065416,-0.535017968321
-0.951668879316,5.79442366898,-0.966936229632,2.40158106917
-3.42318645852,5.87890839591,-1.71115652468,6.51818010666
-3.02470403771,3.28339312283,1.32462318028,2.32477914416
2.42377838309,0.757877849759,-1.42959711477,-1.13862181835
3.18226080389,5.60236257669,0.236182590182,5.14797721914
0.690743224692,4.76684730361,0.831962295135,2.78457625664
-5.21077435451,5.12133203054,0.847742000088,1.87117529413
0.137708066297,6.79581675747,0.323521705042,1.82777433162
0.806190487099,4.2203014844,1.18930141,4.38437336912
-1.8153270921,3.47478621133,3.66508111495,4.54097240661
-1.9968446713,5.63927093825,2.2908608199,3.8775714441
-2.38836225049,8.32375566518,0.806640524856,2.1441704816
1.9001201703,3.35824039211,0.842420229808,3.87076951909
-0.741397408892,3.26272511903,1.28819993476,4.18736855658
-0.592914988087,3.56720984596,0.043979639715,1.35396759408
-2.27443256729,5.31169457289,0.369759344669,-0.279433368431
3.03404985352,6.59617929982,1.21553904962,3.63716566906
5.69253227432,7.20066402674,2.28131875458,8.45376470656
3.78101469512,6.74514875367,2.40709845953,4.99036374405
3.48949711592,6.8996334806,0.972878164482,2.13696278154
1.69797953672,5.35411820752,2.52865786943,0.393561819035
0.546461957525,2.10860293445,-0.385562425612,0.740160856529
4.16494437833,2.95308766138,-0.00978272065913,4.56675989402
2.03342679913,5.9475723883,1.9859969843,8.37335893151
1.22190921993,3.23205711523,2.78177668925,4.43995796901
9.55039164073,-0.0734581578399,2.4675563942,1.8965570065
6.43887406153,1.91102656909,1.34333609915,2.863156044
2.60735648234,3.02551129601,0.169115804109,5.00975508149
6.11583890314,5.76999602294,1.39489550906,5.95635411898
9.57432132394,5.38448074987,1.12067521402,5.40295315647
9.30280374474,7.18896547679,3.27645491897,7.54955219397
8.87128616554,6.42345020372,3.51223462392,8.98615123146
8.72976858635,1.34793493065,2.98801432887,4.01275026895
6.46825100715,-1.04758034242,1.60379403383,-1.24065069355
6.30673342795,-5.03309561549,0.969573738781,3.16594834394
6.27521584875,-5.34861088857,2.34535344373,3.11254738143
7.87369826955,-4.59412616164,0.881133148689,2.01914641893
10.2421806904,-4.77964143471,-1.22308714636,-1.75425454358
11.3506631112,-7.79515670779,-0.477307441405,-5.81765550609
6.69914553196,-7.96067198086,-0.591527736452,-1.7210564686
1.81762795276,-7.24618725393,-1.8557480315,-5.9844574311
2.45611037356,-5.96170252701,-2.39996832655,-4.79785839361
-2.57540720563,-7.27721780008,-3.65418862159,-3.97125935612
-3.40692478483,-5.38273307315,-2.20840891664,-1.68466031862
-0.97844236403,-3.30824834622,-0.672629211685,-2.74806128113
0.290040056771,-4.63376361929,-2.26684950673,-4.20146224364
2.89852247758,-6.04927889237,-4.62106980178,-4.61486320614
-1.00299510163,-8.64479416544,-5.39529009683,-6.79826416865
-4.20451268082,-11.5703094385,-8.52951039187,-12.5916651312
-9.34603026002,-15.0858247116,-7.35373068692,-13.1450660937
-8.25754783922,-15.0513399847,-6.33795098197,-11.7984670562
-1.04906541841,-16.4568552577,-10.412171277,-12.5318680187
-4.76058299762,-19.1723705308,-6.10639157206,-16.5452689812
-5.44210057681,-16.6478858039,-4.28061186711,-16.7886699437
-4.41361815601,-9.74340107695,-3.50483216215,-9.1820709062
-3.95513573521,-9.67891635002,-3.7090524572,-7.5054718687
-3.31665331441,-8.7244316231,-1.48327275225,-8.09887283121
-1.45817089361,-9.93994689617,0.00250695270734,-8.61227379372
-0.709688472802,-11.0854621692,-3.06171334234,-10.7256747562
-2.211206052,-8.25097744232,-6.98593363739,-5.15907571873
-4.0727236312,-10.2664927154,-5.58015393243,-10.2024766812
-2.7842412104,-10.5320079885,-4.11437422748,-14.1958776437
-2.98575878959,-7.18752326153,-3.00859452252,-7.73927860625
-6.36727636879,-6.67303853461,-0.222814817572,-8.85267956876
-4.78879394799,-2.87855380768,-1.56703511262,-8.75608053127
-1.69031152719,-2.19406908075,-1.87125540767,-5.36948149377
-1.69182910639,1.65041564617,0.114524297288,-1.14288245628
-2.91334668559,2.0049003731,-1.14969599776,1.02371658121
0.905135735215,-0.46061489997,-1.71391629281,-1.35968438129
0.383618156018,-1.15613017304,-1.38813658785,-3.0930853438
-4.06789942318,-0.831645446116,0.577643117102,-1.63648630631
-7.37941700238,1.09283928081,2.35342282205,-5.60988726881
-4.62093458157,0.147324007739,3.01920252701,-4.40328823132
-3.37245216078,-1.24819126533,4.88498223196,-3.54668919383
-3.66396973997,1.72629346159,4.79076193692,5.32990984367
-5.84548731917,1.38077818852,1.74654164187,7.32650888116
-6.00700489837,3.30526291545,3.66232134682,4.96310791865
-6.58852247757,2.30974764238,5.10810105177,7.15970695614
-6.94004005676,0.504232369301,4.40388075673,7.36630599364
-11.231557636,0.768717096231,6.98966046168,4.39290503113
-10.8830752152,3.22320182316,7.62544016663,8.57950406862
-13.2345927944,2.36768655009,5.12121987159,4.80610310612
-11.3361103736,-1.34782872299,1.30699957654,0.63270214361
-8.10762795275,-3.81334399606,2.48277928149,0.909301181104
-7.36914553195,-2.89885926913,2.07855898645,-0.0740997814009
-1.75066311115,-1.36437454221,-1.1756613086,1.63249925609
-1.66218069035,1.74011018472,-1.15988160365,4.17909829359
-3.61369826955,4.48459491165,0.125898101308,0.205697331077
-0.0652158487428,4.16907963857,0.661677806261,2.20229636857
-1.59673342794,3.6735643655,-0.312542488786,1.86889540606
-0.548251007142,6.03804909243,-0.806762783832,3.82549444356
-1.46976858634,4.71253381936,0.189016921121,5.55209348105
-8.23128616554,1.60701854628,0.564796626074,1.27869251854
-1.82280374473,0.551503273211,0.280576331027,1.66529155604
-1.69432132393,1.32598800014,2.93635603598,3.84189059353
-1.24583890313,4.14047272706,4.00213574093,3.06848963102
4.08264351767,8.60495745399,7.23791544589,7.44508866852
7.19112593847,9.64944218092,8.97369515084,11.191687706
6.32960835928,8.21392690785,5.69947485579,9.0882867435
4.48809078008,3.64841163477,0.235254560747,0.0648857809938
-2.46342679912,0.382896361702,-4.2189657343,-0.268515181513
-5.35494437832,-1.36261891137,-3.62318602935,-0.93191614402
3.55353804248,-3.26813418445,-2.57740632439,-2.69531710653
1.22202046329,-4.03364945752,-4.55162661944,-5.14871806903
1.82050288409,-3.42916473059,-3.73584691449,-4.98211903154
2.93898530489,-2.52468000366,-4.28006720953,-2.40551999404
4.82746772569,0.249804723266,-1.71428750458,1.28107904345
1.9159501465,3.34428945019,3.06149220037,1.37767808094
-1.8255674327,3.81877417712,3.22727190533,-1.58572288157
-0.377085011904,4.72325890405,2.39305161028,-0.489123844072
1.2513974089,2.39774363097,0.708831315234,-0.822524806579
4.6898798297,2.2422283579,-0.365388979812,-4.70592576909
3.3583622505,3.28671308483,-1.37960927486,-1.56932673159
3.5568446713,1.27119781175,-1.56382956991,1.6772723059
0.175327092107,2.33568253868,-0.798049864952,2.37387134339
5.75380951291,1.82016726561,-0.582270159999,3.52047038088
3.38229193371,4.53465199254,1.40350954495,1.73706941838
4.11077435451,5.04913671947,4.69928924991,2.45366845587
4.03925677532,0.283621446393,-1.02493104514,0.140267493365
5.59773919612,-1.57189382668,-3.04915134019,-3.21313346914
3.93622161692,2.15259090024,-4.14337163523,-1.64653443165
2.34470403772,3.73707562717,-2.94759193028,0.660064605843
4.59318645852,2.6815603541,-3.58181222533,4.19666364334
3.65166887933,3.07604508103,-0.416032520373,8.20326268083
7.36015130013,2.34052980796,2.49974718458,7.37986171833
9.53863372093,9.50501453488,3.21552688953,7.56646075582
-1.84231468023,-7.39855741278,-2.93745639535,-11.8437427326
-0.322471388023,-8.82787023896,-2.59461259385,-11.1347763116
-7.99262809581,-13.9871830651,-1.97176879235,-14.8858098906
-8.5027848036,-11.9964958913,-1.06892499085,-14.9768434696
-1.2829415114,-8.15580871749,-2.09608118934,-12.0478770486
1.23690178081,-4.48512154366,-2.87323738784,-6.58891062764
-3.34325492698,-4.57443436985,-2.38039358634,-6.38994420665
-2.69341163477,-5.51374719602,-2.79754978484,-5.11097778567
-1.17356834256,-9.7130600222,-3.11470598334,-10.2320113647
-1.35372505035,-7.68237284837,-1.09186218184,-7.43304494369
0.436118241854,-5.54168567455,-2.60901838034,-2.94407852271
3.69596153406,-3.93099850073,-3.67617457883,-4.37511210172
2.21580482627,-6.6103113269,-4.97333077733,-2.09614568074
2.61564811848,-10.0996241531,0.74951302417,-4.43717925975
5.92549141069,-10.3189369793,0.0123568256713,-5.55821283877
3.9153347029,-9.08824980543,-2.86479937283,-6.62924641778
-1.8948220049,-6.69756263161,-3.73195557133,-3.3902799968
-2.36497871269,-6.94687545779,-4.79911176982,-4.05131357581
-0.355135420479,-5.75618828397,-2.98626796832,-2.31234715483
-2.12529212827,-4.84550111014,-2.69342416682,-2.64338073384
3.46455116394,-3.72481393631,-1.66058036532,-3.42441431286
1.05439445614,-0.154126762493,2.16226343618,-2.71544789187
0.964237748354,-0.373439588671,1.34510723768,-3.71648147089
-3.01591895944,-4.06275241485,-1.49204896081,-3.8975150499
-4.91607566723,-1.98206524102,0.100794840688,-3.68854862892
-5.43623237502,-1.7313780672,-0.746361357811,-5.45958220793
-2.90638908281,-4.73069089338,-1.52351755631,-7.13061578695
-6.30654579061,-2.61000371955,-2.19067375481,-5.50164936596
-3.2667024984,0.56068345427,-3.39782995331,-3.42268294497
0.983140793811,1.32137062809,-1.33498615181,0.536283476011
-1.92701591398,3.20205780191,0.917857649696,1.58524989699
-3.04717262177,1.61274497574,0.340701451198,1.00421631798
-1.18732932956,2.06343214956,2.6035452527,-3.37681726103
-1.79748603735,1.97411932339,0.0163890542017,1.88214915995
2.09235725486,3.15480649721,0.289232855703,4.16111558094
2.13220054706,9.59549367103,3.4620766572,8.99008200192
8.53204383927,9.46618084486,1.72492045871,9.65904842291
10.1618871315,7.24686801868,2.86776426021,8.76801484389
3.23173042369,5.5475551925,2.94060806171,4.16698126488
0.251573715894,5.86824236633,2.74345186321,4.36594768586
-0.458582991894,5.59892954015,3.83629566471,3.47491410685
-8.95873969969,5.77961671397,1.40913946621,5.17388052783
-8.28889640748,4.1003038878,3.15198326771,0.0728469488186
-2.42905311527,4.50099106162,2.39482706922,3.7418133698
2.53079017694,5.77167823544,0.0976708707185,7.79077979079
2.20063346914,5.01236540927,-1.63948532778,8.29974621177
5.50047676135,9.42305258309,0.243358473722,11.2987126328
5.79032005356,14.1537397569,2.63620227522,15.0376790537
8.34016334577,13.4844269307,1.60904607673,10.7166454747
8.07000663798,9.57511410456,0.541889878226,8.19561189572
4.96984993019,6.17580127839,3.40473367973,5.6945783167
0.519693222392,4.83648845221,0.297577481229,5.40354473768
-0.710463485397,1.28717562603,-3.66957871727,4.26251115867
-0.250620193186,4.36786279986,-1.29673491577,6.07147757966
0.219223099022,7.13854997368,3.70610888573,8.71044400064
3.43906639123,10.0692371475,4.06895268724,13.9194104216
6.67890968344,8.90992432132,3.49179648874,10.9983768426
1.35875297565,7.30061149515,3.36464029024,4.3773432636
-1.39140373215,8.15129866897,3.18748409174,10.0563096846
-1.37156043994,9.15198584279,5.60032789324,11.2852761056
-3.56171714773,8.91267301662,3.66317169474,8.67424252655
-4.12187385553,10.6933601904,2.70601549624,11.2232089475
-3.85203056331,5.35404736427,2.77885929775,4.02217536852
-4.6821872711,3.34473453809,1.66170309925,4.72114178951
-3.9423439789,3.38542171191,4.54454690075,5.77010821049
-1.73250068669,5.17610888573,4.50739070225,5.34907463148
4.81734260552,7.63679605956,1.56023450375,9.74804105246
4.25718589773,8.23748323338,2.19307830525,8.47700747345
2.86702918994,9.64817040721,2.32592210676,10.7559738944
-1.93312751786,7.71885758103,1.85876590826,7.51494031542
-1.55328422565,5.10954475485,3.43160970976,3.0239067364
3.87655906656,6.58023192868,3.14445351126,5.26287315739
1.39640235877,6.7009191025,1.80729731276,7.00183957838
-0.553754349021,6.05160627632,3.19014111426,4.26080599936
0.636088943189,4.21229345015,4.91298491577,2.39977242035
1.61593223539,5.02298062397,3.73582871727,1.95873884133
0.785775527602,5.75366779779,1.36867251877,3.67770526231
-4.17438118019,5.11435497161,2.67151632027,5.3766716833
-3.84453788798,2.98504214544,2.76436012177,3.11563810429
0.565305404227,1.55572931927,1.87720392327,0.974604525272
1.45514869644,0.776416493085,0.760047724775,1.22357094626
2.01499198864,-2.20289633309,-0.537108473723,-2.73746263276
5.92483528085,0.347790840733,-0.734264672221,0.351503788228
6.23467857306,-1.08152198544,0.27857912928,1.51047020921
6.34452186527,-3.23083481162,-4.03857706922,-0.160563369802
3.06436515748,-2.2601476378,-2.57573326772,-0.561596948817
0.0242084496858,-0.0494604639716,1.64711053379,1.47736947217
1.6040517419,-0.58877329015,0.179954335286,1.51633589315
2.9038950341,-3.24808611633,-2.38720186321,1.13530231414
6.85373832631,-4.8773989425,-3.77435806171,-1.38573126488
8.84358161852,-2.77671176868,-3.16151426021,-1.80676484389
5.02342491073,-2.86602459486,-2.97867045871,-3.05779842291
1.15326820294,-0.745337421034,0.424173342794,1.39116799808
-1.72688850485,1.69534975279,1.6570171443,3.58013441907
-3.67704521265,-2.77396307338,-1.4101390542,0.40910084005
-0.85720192044,-2.44327589956,-1.5372952527,-1.78193273896
2.13264137177,-2.91258872574,0.525548548801,-0.392966317979
-2.44751533602,-5.70190155192,-0.901607649698,-3.48399989699
-1.66767204382,-7.02121437809,-2.7587638482,-7.03503347601
-6.22782875161,-3.58052720427,-0.695920046694,-3.76606705502
-5.4479854594,-1.96984003045,3.12692375481,-3.61710063404
-5.17814216719,-2.99915285662,1.49976755631,-4.19813421305
1.39170112502,-6.1284656828,-0.867388642189,-1.55916779207
-1.28845558277,-5.43777850897,1.12545515931,-2.85020137108
1.66138770944,-3.71709133515,0.258298960814,1.3487650499
5.17123100164,-3.46640416133,-1.61885723769,1.08773147089
-3.69892570615,-5.10571698751,-1.20601343618,-4.23330210813
-5.80908241394,-4.78502981368,1.40683036532,-6.78433568714
-7.29923912173,-2.26434263986,4.44967416682,-1.81536926616
-1.19939582952,0.556344533965,4.36251796832,0.683597154828
2.60044746269,-0.272968292211,2.42536176982,-1.43743642419
6.69029075489,-0.49228111839,-1.32179442868,-1.4584700032
4.2301340471,-4.72159394456,-4.20895062717,-1.00950358222
0.609977339311,-7.16090677074,-3.08610682567,-6.28053716123
0.469820631519,-2.82021959692,-3.88326302417,-6.60157074024
-3.35033607627,-1.43953242309,-5.47041922267,-5.88260431926
-4.11049278406,-1.02884524927,-2.24757542117,-4.71363789828
-5.23064949186,-6.05815807545,0.635268380333,-9.65467147729
1.11919380035,-5.49747090162,-1.23188781816,-7.3957050563
1.20903709256,-3.1567837278,-3.08904401666,-3.55673863532
2.51888038477,-2.63609655398,-2.27620021516,-6.05777221433
-0.581276323024,-5.58540938016,-4.10335641366,-8.64880579335
-5.88143303082,-7.24472220633,-4.55051261216,-5.98983937236
-2.08158973861,-4.38403503251,-3.85766881066,-4.76087295138
0.578253553602,-2.41334785868,-2.57482500915,-4.40190653039
-1.41190315419,-2.35266068486,-1.12198120765,-3.26294010941
-4.05205986198,-1.68197351104,-0.959137406152,-5.09397368842
-5.08221656977,-4.25128633721,-1.40629360465,-9.87500726744
-5.38098837208,-3.26387718023,-0.0407412790728,-4.99858284884
-6.31683648827,-0.060139941168,3.19762792414,-3.41099443784
-6.31268460446,0.26359729789,1.52599712735,-3.54340602683
-8.04853272065,-3.23266546305,-0.755633669432,-4.88581761583
-9.02438083684,-3.31892822399,-0.397264466218,-5.72822920482
-6.16022895302,-3.72519098493,-1.088895263,-2.47064079382
-9.05607706921,-2.00145374587,1.69947394021,-1.30305238281
-9.1619251854,-1.44771650682,2.32784314342,-3.40546397181
-3.34777330159,-1.60397926775,-0.913787653363,-1.6878755608
-2.53362141777,0.0897579713019,0.844581549851,-0.390287149792
-0.339469533959,1.66349521036,-0.827049246936,2.27730126121
3.57468234985,1.73723244942,-0.808680043721,3.81488967222
0.748834233666,1.39096968848,2.44968915949,0.642478083222
6.18298611748,2.06470692754,0.598058362706,-1.96993350577
3.30713800129,2.47844416659,1.44642756592,4.44765490523
8.7612898851,1.19218140565,3.88479676913,3.23524331624
7.81544176891,-0.0740813552911,0.233165972348,3.35283172724
8.19959365273,-0.730344116226,-2.06846482444,4.09042013825
5.43374553654,1.62339312283,-4.44009562123,2.20800854926
9.36789742035,-0.192869638111,-1.08172641801,1.18559696026
6.76204930416,0.550867600949,-0.0833572147976,4.58318537127
3.27620118797,0.874604840006,0.205011988416,0.470773782272
0.220353071789,1.39834207906,-1.19661880837,-1.90163780672
-0.0854950443972,0.602079318123,-3.21824960516,1.09595060428
2.19865683941,-1.71418344282,-2.89988040194,-1.47646098471
-3.84719127677,-1.30044620376,1.13848880127,-2.85887257371
-2.99303939296,2.1032910353,0.226858004485,-0.581284162701
0.521112490849,3.90702827436,-0.424772792301,0.0963042483036
-1.50473562534,6.13076551342,2.45359641091,4.78389265931
-1.81058374152,1.46450275248,0.731965614125,1.54148107032
0.56356814229,-0.851760008463,-0.82966518266,-0.960930518679
4.7077200261,4.23197723059,3.45870402055,4.29665789233
7.17187190991,4.93571446965,1.91707322377,3.29424630333
1.69602379372,4.42945170871,1.29544242698,2.37183471434
5.73017567754,6.38318894777,2.38381163019,5.03942312534
4.95432756135,7.48692618683,1.94218083341,4.22701153635
1.39847944516,9.47066342589,2.67055003662,3.09459994736
5.59263132898,9.00440066494,2.95891923984,1.12218835836
-0.483216787215,9.018137904,0.99728844305,3.62977676936
4.2409350966,7.01187514306,-0.214342353736,6.69736518037
11.0150869804,6.70561238212,0.974026849477,6.20495359138
15.1792388642,10.5693496212,4.95239605269,14.7625420024
17.593390748,8.54308686024,3.7607652559,16.2601304134
-3.67245736815,1.6468240993,-0.130865540881,5.12771882439
-4.67830548434,0.540561338355,-3.88249633767,4.0153072354
15.5558463995,-5.55570142259,-3.72412713445,-1.5471043536
0.859998283286,-4.18196418353,-3.70575793124,-1.61951594259
12.2641501671,0.721773055531,-1.40738872803,4.70807246841
-0.961697949086,4.19551029459,-0.689019524812,3.67566087942
9.01245393473,4.53924753365,0.809349678401,3.45324929043
-0.253394181465,1.82298477271,1.04771888161,1.00083770143
0.480757702349,3.70672201176,2.50608808483,3.18842611244
0.60490958616,3.21045925083,1.40445728804,0.0860145234419
0.279061469973,2.01419648989,-0.767173508744,-1.27639706555
1.22321335379,-1.13206627106,-1.72880430553,0.691191345451
0.0873652375994,-3.358329032,-1.48043510232,-3.06122024354
2.46151712141,-6.74459179294,-1.0820658991,-6.01363183254
-3.03433099478,-7.88085455388,-0.79369669589,-4.94604342153
-16.210179111,-3.68711731482,-1.59532749268,-5.25845501053
-6.79602722715,-7.34338007576,-3.49695828946,-5.75086659952
-1.00187534334,-8.2996428367,-3.20858908625,-4.74327818851
-6.04772345952,-7.41590559765,-3.23021988303,-7.48568977751
-5.82357157571,-8.30216835859,-5.13185067982,-9.7881013665
-10.8894196919,-5.87843111953,-1.42348147661,-7.6905129555
-6.38526780809,-6.84469388047,-0.615112273393,-10.5929245445
-1.44111592428,-4.96095664141,-4.19674307018,-7.73533613349
0.213035959536,-6.67721940235,-5.28837386697,-7.23774772248
-8.15281215666,-8.98348216329,-2.77000466375,-11.2001593115
-7.36866027284,-9.15974492424,-1.25163546054,-10.7025709005
-7.54450838903,-7.98600768518,-1.45326625732,-6.36498248947
-5.99035650522,-7.03227044612,-0.644897054111,-5.80739407846
-3.8862046214,-4.25853320706,1.2334721491,-4.10980566745
-4.04205273759,-3.554795968,0.0918413523177,-0.75221725645
-1.03790085378,-3.01105872894,-0.66978944447,-0.444628845444
-1.12374896997,-1.72732148989,-0.251420241256,-1.86704043444
0.780402913846,-0.0335842508248,-1.28305103804,1.64054797657
0.54455479766,4.40015298824,-2.53468183483,5.39813638757
3.45870668147,5.79389022729,-0.186312631614,7.45572479858
3.28285856529,5.30762746635,2.8520565716,6.62331320958
-4.44298955091,3.51136470541,5.60042577481,2.36090162059
-0.658837667092,0.275101944469,4.56879497803,0.698490031595
-6.86468578328,0.248839183529,1.99716418124,-0.4339215574
-3.73053389947,2.67257642258,0.0755333844545,3.20366685361
0.783617984347,1.31631366165,0.593902587669,4.21125526461
-7.56223013184,-2.2099490993,3.83227179088,1.19884367562
5.09192175197,-1.59621186024,4.1606409941,1.57643208662
1.07607363578,-1.27247462118,1.85901019731,1.37402049763
4.68022551959,0.411262617879,2.41737940052,2.67160890863
-0.145622596592,-3.28500014306,-1.04425139626,-1.42080268036
-1.59147071278,-7.771262904,-2.25588219305,-5.12321426936
-2.56731882897,-9.03752566494,-4.48751298984,-2.33562585835
-5.11316694516,-10.2337884259,-6.61914378662,-4.09803744735
-7.82901506134,-6.22005118683,-1.27077458341,-1.88044903634
-4.15486317753,-4.69631394777,1.18759461981,1.19713937467
-5.49071129372,-4.90257670871,-0.364036176981,0.374727785671
0.773440590096,-3.95883946965,-0.945666973767,0.352316196679
-1.81240752609,-2.60510223059,-2.01729777055,-0.230095392317
0.221744357717,0.398635008467,-3.33892856734,1.80749301869
-0.594103758467,-0.307627752474,-1.15055936413,1.49508142969
-0.589951874656,-5.64389051341,-0.0721901609113,-3.9373301593
1.40420000916,-5.94015327435,-0.923820957698,-4.3197417483
-3.60164810703,-7.4964160353,-1.46545175448,-5.23215333729
-2.60749622322,-8.20267879624,-3.00708255127,-8.22456492628
-5.06334433941,-7.00894155718,-4.50871334806,-7.61697651528
-9.40919245559,-4.74520431812,-2.63034414484,-9.07938810427
-12.8550405718,-3.28146707906,3.06802505837,-6.81179969327
-3.03088868797,0.892270159995,3.60639426158,0.205788717736
-0.186736804153,3.19600739905,2.9847634648,2.99337712874
-1.92258492034,2.44974463811,3.42313266801,1.03096553975
-2.04843303653,2.79348187717,2.35150187123,1.09855395075
3.18571884728,0.877219116228,1.18987107444,1.16614236176
1.30987073109,-0.699043644709,1.38824027765,-2.56626922724
-3.93597738509,0.454693594347,0.936609480867,-2.80868081623
-3.10182550128,1.86843083341,0.404978684081,-2.52109240522
-1.72767361747,2.57216807247,-1.31665211271,-0.753503994219
0.196478266342,2.76590531152,1.54171709051,-0.815915583213
-1.06936984984,4.33964255058,3.98008629372,1.93167282779
-1.84521796603,3.90337978964,2.92845549694,3.6692612388
6.02893391778,6.9471170287,2.29682470015,4.2368496498
7.3030858016,6.13085426776,-0.544806096636,0.884438060808
6.50723768541,4.93459150682,0.553563106578,0.682026471814
7.96138956922,7.44832874588,4.28193230979,2.26961488282
8.48554145303,7.97206598493,2.670301513,4.79720329383
3.94969333684,5.475803224,0.998670716218,3.94479170483
8.43384522066,5.77954046305,-0.752960080568,6.85238011584
12.6879971045,8.64327770211,-1.84459087735,9.35996852684
6.18214898828,7.96701494117,-1.70622167414,7.58755693785
4.71630087209,7.17075218023,-2.93785247093,6.65514534885
-1.25500000001,-0.381000000005,-1.429,-0.39699999999
2.355,0.562999999991,1.507,1.12600000001
-0.945000000003,0.0169999999925,1.273,-1.06099999999
