-15.9423146802,-0.822656249984,-0.344651162799,-6.83145712209
-12.1018316242,-0.698219734244,-0.244617286218,-5.40870410639
-11.5213485683,-4.0337832185,-0.294583409639,-8.69595109069
-12.3408655123,0.360653297255,1.68545046694,-3.68319807498
-3.69038245628,2.765089813,1.07548434352,-0.590445059283
-3.15989940029,6.16952632875,0.975518220101,1.22230795642
-12.5494163443,1.4639628445,0.205552096679,0.955060972122
-9.27893328831,-6.32160063976,0.315585973258,-3.91218601218
-7.24845023233,-2.367164124,-0.304380150163,-5.55943299647
-6.98796717634,3.91727239174,-1.60434627358,0.123320019229
-9.44748412035,4.65170890749,-1.164312397,-1.88392696507
-7.45700106437,3.18614542324,-0.454278520425,0.358826050633
-9.94651800838,-8.84941806101,-3.63424464384,-3.63842093366
-8.36603495239,-9.41498154527,-3.67421076727,-2.89566791796
-8.7755518964,-3.28054502952,-1.04417689069,-6.19291490226
-12.5350688404,3.39389148623,0.715856985895,-3.20016188656
-11.1145857844,-2.18167199802,-1.26410913753,-4.55740887086
-12.6141027284,-8.13723548227,0.255924739053,-5.31465585515
-5.42361967245,-4.35279896652,0.225958615632,-6.31190283945
-2.97313661646,-4.01836245078,-1.12400750779,-6.47914982375
5.58734643953,-2.77392593503,-1.22397363121,-6.07639680805
8.39782949552,0.190510580716,-2.57393975463,-2.96364379235
6.6483125515,-7.26505290353,-2.58390587805,-4.01089077664
4.89879560749,-3.93061638778,-0.643872001474,-2.41813776094
4.37927866348,-2.70617987204,-2.86383812489,-3.95538474524
8.68976171947,-4.08174335629,-3.68380424831,-5.04263172954
3.54024477545,-6.54730684054,-3.42377037173,-5.61987871383
5.46072783144,-12.3028703248,-3.98373649515,-8.27712569813
3.62121088743,-7.03843380905,-3.68370261857,-1.87437268243
3.08169394342,-5.1039972933,-4.873668742,-2.32161966673
15.3421769994,0.720439222452,-4.88363486541,0.191133348975
15.1826600554,-1.4051242618,-1.62360098883,1.08388636468
5.23314311138,-1.66068774606,-0.873567112256,6.81663938038
13.8336261674,-0.266251230307,-1.55353323568,11.6693923961
12.0141092234,2.24818528544,-1.3134993591,5.15214541178
12.8845922793,2.4126218012,-0.883465482519,-0.345101572513
6.48507533533,-3.69294168307,-2.92343160594,-3.31234855681
3.46555839132,-14.9185051673,-6.50339772936,-10.4195955411
3.87604144731,-5.50406865156,-3.40336385278,-7.50684252541
6.13652450329,0.700367864178,-3.2833299762,-1.5540895097
8.96700755928,0.854804379924,-3.17329609962,-0.561336494002
10.0574906153,0.929240895675,-2.15326222304,2.8414165217
0.397973671257,-8.35632258857,-4.60322834646,-2.2758304626
-0.751543272752,-7.49188607283,-4.78319446988,-0.353077446895
8.73893978323,-4.90744955708,-2.2731605933,3.58967556881
-0.13057716078,-1.63301304133,-2.97312671672,2.14242858451
3.45990589521,-1.44857652558,-2.42309284014,-0.424818399789
6.0203889512,-1.45414000984,-1.44305896356,3.28793461591
2.80087200719,-5.50970349409,-1.29302508698,2.94068763162
10.2413550632,-3.08526697834,-2.8729912104,4.15344064732
11.6818381192,0.819169537412,-3.03295733382,2.85619366302
3.12232117515,0.893606053156,-3.17292345724,3.48894667872
4.11280423113,-11.4319574311,-6.67288958067,-4.05830030558
8.02328728713,-6.58752091535,-5.13285570409,-2.98554728987
10.2337703431,1.7669156004,-2.35282182751,1.42720572583
9.5942533991,6.74135211614,-0.082787950927,7.41995874153
17.9747364551,2.27578863189,-0.782754074346,5.50271175723
7.01521951107,1.69022514764,0.347279802234,2.51546477294
13.6557025671,8.16466166339,1.05731367881,5.06821778864
13.026185623,14.1190981791,2.96734755539,10.1009708043
11.986668679,9.24353469488,0.43738143197,8.74372382004
13.297151735,8.39797121064,0.917415308551,9.48647683574
12.157634791,7.94240772638,1.75744918513,12.2392298514
12.778117847,11.6468442421,3.04748306171,12.8519828671
9.57860090298,15.9912807579,4.91751693829,14.5547358829
18.219083959,15.2057172736,4.57755081487,15.1174888986
18.839567015,15.3901537894,3.17758469145,20.2902419143
10.0300500709,12.1245903051,3.30761856803,12.60299493
10.4205331269,11.0190268209,3.11765244461,13.6357479457
2.77101618292,16.1734633366,4.96768632118,15.3585009614
1.78149923891,17.1478998524,6.99772019776,14.0912539771
0.611982294904,14.2723363681,6.73775407434,9.96400699277
-0.637534649111,12.2267728839,9.25778795092,9.27676000847
5.34294840688,14.5912093996,8.8678218275,9.70951302417
-0.536568537129,14.9556459154,8.50785570408,12.6122660399
-1.23608548115,12.8300824311,8.17788958066,8.28501905558
-2.93560242516,11.0745189469,10.1379234572,7.50777207128
-3.77511936917,6.1689554626,10.6279573338,5.59052508698
-8.76463631319,4.77339197835,8.8479912104,2.28327810268
-11.3641532572,7.8078284941,11.608025087,7.65603111839
-12.7736702012,7.72226500985,11.8480589636,-0.201215865913
-14.7431871452,-1.58329847441,9.31809284014,-9.27846285021
-18.7127040892,-5.79886195866,9.10812671672,-7.77570983451
-17.5022210332,3.47557455709,10.1281605933,1.55704318119
-14.0517379773,0.130011072841,7.32819446988,-2.7802038031
-12.1512549213,-0.0355524114202,6.73822834646,-3.2674507874
-11.6207718653,1.42888410433,6.47826222303,-3.7946977717
-14.9802888093,-3.42667937992,7.70829609962,-4.481944756
-14.2298057533,-2.59224286417,6.79832997619,-3.84919174029
-20.2193226973,3.19219365157,7.43836385277,-1.52643872459
-16.5188396413,2.95663016733,8.34839772935,-0.73368570889
-17.4883565853,1.96106668307,4.91843160593,-1.04093269319
-16.7278735294,-10.6544968012,1.62846548251,-5.50817967749
-11.3073904734,-13.0700602854,1.74849935909,-7.35542666178
-9.74690741738,-5.39562376968,1.07853323567,-3.44267364608
-7.55642436139,-3.62118725394,-0.631432887749,-5.89992063038
-6.44594130541,-6.06675073819,-0.621399011168,-8.72716761468
-12.1754582494,-16.0423142224,-2.10136513459,-12.684414599
-11.4649751934,-4.71787770669,1.75866874199,-3.60166158327
-11.6744921374,0.526558809055,2.14870261857,-3.19890856757
-9.17400908145,4.1809953248,1.82873649515,-4.03615555187
-4.97352602547,-0.254568159449,0.148770371728,-2.93340253617
-0.463042969481,-6.2101316437,-1.00119575169,-1.88064952046
-3.02255991349,0.354304872053,2.15883812489,0.762103495238
-1.6620768575,5.63874138779,4.00887200147,2.53485651094
0.838406198483,9.67317790354,1.96890587805,4.63760952664
3.19888925448,1.74761441929,0.168939754625,-0.899637457655
-0.16062768954,0.822050935043,-0.0610263687922,-0.936884441952
-3.27014463356,-3.05351254922,-1.43099249221,-5.16413142625
-0.349661577558,-1.86907603346,-2.11095861563,-3.43137841055
2.33082147843,4.23536048229,-0.730924739055,0.281374605154
0.55130453442,1.56979699802,0.619109137526,-0.625872379143
2.8317875904,-8.56576648622,-2.8708569859,-3.04311936344
-0.417729353612,-8.28132997047,-2.41082310932,-2.34036634774
5.95275370238,-3.62689345473,-2.44078923274,-1.32761333204
3.21323675836,-1.71245693898,-3.10075535616,0.465139683665
0.19371981435,-7.10802042323,-4.65072147958,-5.18210730063
3.51420287034,-15.2535839075,-7.670687603,-7.14935428493
2.75468592632,-4.73914739173,-5.18065372642,-2.58660126923
-2.18483101769,-4.81471087599,-7.87061984984,-8.68384825353
2.49565203831,-10.5402743602,-11.9905859733,-6.89109523782
3.83613509429,-6.32583784449,-11.3305520967,-2.72834222212
4.87661815027,-9.49140132874,-10.7105182201,-5.19558920642
10.7771012063,-8.18696481299,-10.5004843435,-3.52283619072
11.7075842623,-3.65252829725,-10.7704504669,-4.09008317501
10.3180673182,0.871908218505,-9.57041659037,-3.57733015931
8.34855037423,1.95634473425,-7.35038271379,-0.82457714361
7.93903343022,0.410781249993,-6.98034883721,0.708175872092
-5.85879723836,1.69523619187,0.081206395349,2.73910247093
-0.31297341374,9.38227356484,4.1799460092,6.73692664462
-1.78714958912,9.2493109378,8.03868562305,13.0147508183
-3.2813257645,13.9563483108,8.3174252369,16.332574992
-15.0855019399,0.183385683726,3.07616485076,5.56039916568
-8.28967811526,4.27042305669,3.86490446461,9.08822333936
-3.39385429064,10.2574604297,4.54364407847,7.87604751305
-0.198030466017,2.93449780261,1.83238369232,-0.426128313266
-8.2622066414,-1.93846482442,-0.658876693829,-5.47830413958
-12.3063828168,-4.15142745146,-0.920137079978,0.219520034108
-9.95055899216,-1.0043900785,2.91860253387,1.68734420779
-1.83473516754,1.06264729446,2.81734214773,0.255168381479
-5.81891134292,6.01968466742,1.90608176158,4.25299255517
-0.403087518302,1.34672204039,1.38482137544,0.260816728852
0.532736306319,-5.38624058665,-0.416439010714,2.82864090254
-1.47143986906,0.240796786311,-0.277699396858,6.35646507622
1.85438395556,8.68783415927,0.901040216992,9.37428924991
2.59020778017,0.14487153224,-3.92022016916,0.982113423596
-1.40396839521,-2.8580910948,-2.8114805553,-2.22006240272
-8.19814457058,-3.06105372183,0.637259058552,2.44776177097
-3.23232074596,1.29598365114,1.4359986724,2.89558594465
3.20350307866,6.60302102409,3.14473828626,4.16341011834
-0.610673096722,11.0300583971,5.34347790011,6.21123429203
1.5751507279,9.92709577002,7.70221751396,9.55905846571
-0.569025447483,7.68413314298,8.36095712781,8.7968826394
2.63679837713,10.1611705159,11.5696967417,7.56470681308
1.16262220176,12.6182078889,10.3884363555,6.62253098677
-5.48155397362,9.32524526187,6.55717596937,3.58035516046
-2.395730149,-8.40771736517,2.02591558323,-7.02182066586
-3.83990632439,-13.7906799922,-0.955344802922,-10.5839964922
-16.3540824998,-12.1636426192,-0.806605189067,-10.0061723185
-11.1082586751,-9.41660524628,-2.78786557521,-9.6083481448
-6.86243485052,-10.8995678733,-4.62912596136,-10.9305239711
-2.6066110259,-10.6625305004,-4.96038634751,-8.88269979743
-4.97078720128,-14.3754931274,-3.49164673366,-8.79487562374
4.88503662334,-7.65845575443,-2.65290711981,-1.79705145005
5.74086044796,-6.43141838146,-2.35416750595,-2.20922727637
13.9366842726,1.38561899149,0.474572107902,0.668596897317
12.5725080972,2.90265636446,2.22331172175,6.096421071
10.4583319218,0.329693737418,3.93205133561,7.52424524469
14.7741557464,3.83673111039,5.24079094946,6.47206941838
18.3899795711,10.3737684833,6.67953056332,8.09989359206
16.4758033957,13.7008058563,6.55827017717,6.18771776575
18.7516272203,12.1778432293,7.17700979102,9.76554193943
22.0174510449,9.04488060223,6.10574940487,8.64336611312
20.1632748695,7.5619179752,4.28448901873,3.76119028681
19.9690986942,11.1389553482,2.44322863258,5.05901446049
12.9749225188,6.95599272112,-0.22803175357,1.18683863418
11.3607463434,5.33303009408,0.180707860283,0.284662807865
12.126570168,-6.50993253296,-3.67055252586,-9.14751301845
12.9123939926,-9.89289515999,-7.35181291201,-9.62968884476
12.6882178173,-4.93585778703,-7.94307329816,-7.95186467108
7.41404164187,-7.32882041407,-8.5143336843,-12.1340404974
9.44986546649,-9.59178304111,-9.32559407045,-9.79621632371
5.56568929111,-15.7447456681,-10.0568544566,-13.93839215
10.4315131157,-15.6177082952,-9.41811484275,-14.3905679763
7.75733694035,-11.2806709222,-8.60937522889,-8.60274380265
15.293160765,-3.93363354925,-7.83063561504,-6.57491962896
6.1989845896,-10.2465961763,-7.33189600119,-12.6770954553
-1.87519158579,-12.2795588033,-6.16315638733,-13.2392712816
-6.13936776116,-12.8725214304,-6.17441677348,-14.1214471079
-4.03354393654,-9.0954840574,-7.32567715963,-14.9036229342
-6.64772011193,-7.95844668443,-7.44693754577,-13.2757987605
-11.8118962873,-13.9714093115,-8.88819793192,-16.7279745868
-12.8560724627,-14.0543719385,-6.70945831807,-17.0001504132
-15.1402486381,-16.3073345656,-7.57071870421,-16.2623262395
-13.8144248134,-8.92029719258,-5.37197909036,-11.9545020658
-10.8686009888,0.376740180378,-4.06323947651,-1.3166778921
-12.7427771642,0.323777553342,-0.92449986266,1.89114628159
-10.0769533396,-4.5291850737,0.984239751197,-3.43102954473
-3.46112951497,-0.672147700738,-3.51702063495,-2.72320537104
-6.02530569035,4.04488967223,-3.6182810211,3.26461880265
-1.15948186573,7.17192704519,-1.59954140725,1.78244297633
-2.20365804111,8.27896441815,-2.12080179339,6.09026715002
4.81216578351,5.88600179111,-2.25206217954,5.5780913237
-1.35201039187,4.07303916408,-2.99332256569,4.63591549739
0.953813432752,7.96007653704,-1.98458295184,7.44373967108
2.44963725737,4.86711391,-2.14584333798,3.71156384476
-5.34453891801,-4.64584871703,-4.41710372413,-4.01061198155
-4.24871509339,-6.35881134407,-2.28836411028,-4.35278780787
-4.92289126877,-1.49177397111,-2.29962449642,-0.484963634181
-0.197067444147,1.67526340186,-4.90088488257,-1.04713946049
-0.381243619529,3.84230077481,-3.26214526872,-1.94931528681
-3.93541979491,2.12933814778,-3.13340565487,6.58850888688
-0.489595970284,-2.25362447926,-2.99466604101,7.18633306056
-2.31377214567,1.72341289371,-0.435926427159,4.76415723425
-1.84794832105,2.75045026666,-1.38718681331,3.60198140794
9.28787550357,2.24748763963,-1.88844719945,5.44980558162
-8.1063006718,-5.11547498741,-3.7097075856,1.91762975531
-10.2504768472,-8.01843761445,-3.14096797175,-4.19454607101
-4.70465302256,-4.36140024148,-4.80222835789,-4.84672189732
-2.28882919795,1.11563713148,-0.253488744045,-2.40889772363
-5.19300537333,1.57267450444,-1.50474913019,-1.59107354995
-6.81718154871,-0.710288122595,-1.39600951633,-1.15324937626
-6.75135772409,-5.65325074963,-1.40726990248,-3.27542520257
-1.07553389947,-8.02621337667,-4.52853028863,-7.41760102889
-8.44971007486,0.820823996299,-3.32979067478,-3.4697768552
-4.91388625023,1.99786136926,-3.46105106092,-2.60195268152
-10.3880624256,-2.96510125777,-3.22231144707,-5.95412850783
-9.47223860099,-7.48806388481,-2.09357183322,-5.86630433414
-9.44641477637,-3.20102651185,0.995167780631,-5.53848016046
-6.69059095175,4.14601086111,1.45390739449,-4.76065598677
-0.704767127128,-0.146951765928,-1.41735299166,-6.26283181309
-0.928943302511,-4.99991439297,-1.26861337781,-2.2050076394
3.12688052211,-0.472877020002,2.56012623604,3.40281653429
1.09270434673,2.56416035296,4.0488658499,0.630640707972
8.97852817135,4.41119772592,2.84760546375,3.72846488166
9.16435199597,5.41823509888,3.5263450776,5.98628905534
-2.50982417941,0.69527247185,3.00508469146,3.00411322903
3.57599964521,-0.517690155189,3.70382430531,1.97193740272
5.86182346983,7.22934721778,4.50256391916,4.6497615764
6.39764729445,9.82638459073,4.98130353302,7.50758575009
10.7334711191,15.1634219637,6.22004314687,11.5754099238
6.21929494369,6.75045933666,5.55878276072,8.55323409746
-4.23488123169,-0.292503290373,6.01752237458,5.19105827115
-5.90905740707,6.38453408259,7.97626198842,9.18888244483
-0.543233582452,4.16157145555,5.39500160228,6.61670661852
3.30259024217,9.23860882851,5.51374121613,9.49453079221
2.20841406679,-0.564353798523,3.13248082999,5.33235496589
0.624237891403,-4.13731642556,4.39122044384,3.96017913958
1.70006171602,-1.1102790526,4.46996005769,4.96800331326
3.15588554065,0.586758320358,4.56869967154,1.09582748695
1.07170936526,2.70379569333,5.33743928539,1.46365166064
-3.35246681012,-0.179166933711,4.23617889925,0.301475834322
-1.75664298549,0.107870439249,5.2049185131,-0.330699991992
-4.87081916087,2.35490781221,3.18365812696,4.00712418169
2.26500466374,5.37194518517,1.94239774081,5.69494835538
6.29082848837,7.86898255814,3.25113735466,6.09277252907
-0.464360465106,0.257638081406,2.21099200581,6.4585755814
-3.5737196999,-9.33564903405,0.965997299023,1.21238246201
2.25692106529,-1.86893614951,1.68100259224,2.46618934261
1.12756183049,-5.02222326496,-2.00399211455,2.10999622322
-0.751797404315,-5.01551038041,0.68101317867,0.903803103829
-9.28115663911,-5.61879749587,-0.923981528114,-4.00239001556
-0.920515873921,-10.0420846113,-2.2389762349,-0.518583134954
-6.08987510872,-5.07537172679,-0.423970941683,-0.554776254347
-7.09923434352,-0.478658842236,-0.528965648464,1.29903062626
-6.50859357832,2.24805404231,0.596039644748,2.60283750687
-4.05795281313,-2.35523307315,-1.16895506204,0.886644387477
-5.19731204792,-0.648520188595,0.86605023118,1.92045126808
2.59332871727,0.0181926959413,0.691055524396,3.64425814869
-4.04603051752,4.13490558049,2.43606081761,2.7980650293
-3.96538975233,3.95161846503,2.08106611083,4.72187190991
-8.93474898713,2.34833134958,4.05607140404,6.08567879052
-2.59410822193,-4.51495576588,2.61107669726,3.92948567112
1.86653254327,4.40175711867,2.20608199047,8.80329255173
-1.41282669154,7.19847000321,2.50108728369,9.00709943234
-4.75218592634,8.04518288776,2.30609257691,6.60090631295
-8.76154516113,7.24189577231,4.16109787012,7.13471319356
-4.61090439594,3.68860865685,4.83610316334,7.20852007416
-4.46026363074,8.9453215414,4.73110845656,9.51232695477
4.47037713446,6.24203442594,2.54611374977,9.11613383538
-1.42898210034,8.04874731048,1.21111904298,8.86994071599
-7.11834133514,3.09546019502,-1.1138756638,5.0737475966
0.212299430052,-4.32782692042,-2.69887037058,0.277554477203
-4.37705980475,-3.59111403589,-2.62386507737,-2.19863864219
-2.83641903954,-0.614401151339,-2.08885978415,-2.51483176158
-2.97577827435,2.6923117332,-0.783854490939,-0.491024880972
-3.70513750915,0.749024617748,-0.918849197722,-0.397218000365
-4.31449674395,0.0557375022981,-1.83384390451,0.186588880243
-2.48385597875,2.69245038684,-0.818838611289,4.72039576085
1.62678478645,4.81916327139,-0.143833318074,5.22420264146
-0.242574448363,12.8258761559,0.841171975142,8.72800952207
-0.491933683159,3.45258904048,2.14617726836,4.44181640267
1.75870708204,2.49930192502,3.02118256157,2.52562328328
8.25934784724,5.49601480956,1.99618785479,4.40943016389
0.989988612433,10.6627276941,2.31119314801,6.3332370445
6.26062937763,7.16944057865,0.41619844122,5.01704392511
2.95127014283,6.05615346321,0.861203734436,1.83085080571
-0.568089091961,7.82286634774,3.52620902765,5.02465768632
5.88255167323,8.84957923229,3.62121432086,4.26846456693
-3.12680756157,12.8962921168,4.00621961408,6.22227144754
1.71383320363,11.2030050014,3.8312249073,3.96607832815
-1.44552603117,3.97971788592,2.00623020051,1.28988520875
-2.38488526598,2.52643077047,1.87123549373,1.35369208936
-6.75424450078,0.673143655011,1.09624078694,-0.94250103003
1.53639626443,4.02985653956,0.561246080164,0.541305850577
-3.12296297037,1.5465694241,-0.353748626625,-5.94488726881
0.137677794817,-1.89671769135,-0.74874333341,-6.56108038821
-7.87168143998,-8.8900048068,-4.10373804019,-8.0572735076
-8.64104067478,-2.58329192226,-3.37873274698,-4.63346662699
5.88960009042,4.18342096228,-3.93372745376,3.89034025362
-5.62975914439,7.67013384683,-2.85872216054,-2.54585286577
-11.0691183792,2.86684673138,-1.38371686733,-6.47204598517
-3.60847761399,-8.72644038408,-3.29871157412,-10.9382391046
-2.71783684879,-9.52972749953,-3.7637062809,-12.544432224
-4.33719608359,-1.623014615,-2.28870098768,-8.50062534334
5.65344468161,-6.80630173044,-4.96369569447,-12.8068184627
5.82408544681,-10.6095888459,-5.04869040125,-16.3630115821
7.65472621201,-11.7228759614,-4.62368510804,-15.0192047015
2.0553669772,-8.16616307681,-2.53867981482,-14.0453978209
14.3860077424,-4.85945019227,-1.48367452161,-9.8215909403
7.9466485076,-5.10273730772,-2.75866922839,-12.7877840597
6.6872892728,-10.3760244232,-2.45366393517,-12.2039771791
6.877930038,-11.3393115386,-2.22865864196,-8.92017029848
11.2585708032,-7.71259865409,-2.63365334874,-6.78636341787
9.06921156839,-4.40588576954,-4.65864805552,-9.02255653726
15.2698523336,-5.189172885,-6.04364276231,-10.7587496567
12.6504930988,-9.72246000046,-3.91863746909,-11.854942776
12.021133864,-10.3257471159,-4.40363217588,-7.55113589544
16.2617746292,-12.7190342314,-6.25862688266,-12.9873290148
15.2724153944,-5.78232134681,-3.68362158945,-7.48352213422
12.6730561596,-6.03560846228,-5.10861629623,-7.51971525362
14.9036969248,-7.90889557773,-4.05361100302,-9.86590837301
7.07433768998,-9.36218269318,-1.5186057098,-9.9921014924
8.83497845518,-9.47546980864,-1.47360041659,-9.07829461179
11.2656192204,-3.1487569241,-0.25859512337,-6.83448773118
9.73625998558,-6.90204403955,-2.51358983015,-8.20068085058
17.8869007508,-9.69533115501,-5.59858453694,-7.07687396997
19.537541516,-10.1886182705,-6.73357924372,-8.07306708936
10.8381822812,-1.24190538591,-2.54857395051,-4.44926020875
9.75882304637,2.98480749863,0.516431342709,-1.16545332815
12.4594638116,5.22152038318,1.10143663592,-0.311646447537
6.39010457677,0.278233267716,0.296441929142,1.59216043307
2.52074534197,-2.33505384773,0.821447222359,0.475967313679
8.10138610716,3.45165903681,2.85645251557,2.37977419429
11.3620268724,5.28837192136,0.781457808785,4.06358107489
5.70266763757,-1.25491519411,-1.073536898,0.667387955503
3.21330840277,1.89179769045,0.901468395219,1.79119483611
0.453949167961,-0.321489425005,2.04647368844,1.88500171672
0.0745899331596,2.74522345953,1.71147898165,4.79880859733
-1.70476930164,4.80193634408,2.63648427487,4.08261547793
1.49587146356,5.37864922862,4.02148956808,2.81642235854
-1.17348777124,-2.10463788683,1.4064948613,-0.57977076085
-14.282847006,-10.5979250023,0.0715001545141,-4.88596388024
-7.33220624085,0.86878788226,3.16650544773,0.837843000366
-7.56156547565,5.7455007668,2.45151074095,1.49164988097
-10.9409247104,4.09221365135,-0.203483965837,-1.28454323842
-10.3302839453,-1.07107346411,0.441521327379,-6.48073635781
-4.55964318005,1.32563942044,1.67652662059,-1.4469294772
-4.36900241485,5.41235230499,2.91153191381,2.37687740341
-5.97836164966,3.12906518953,3.40653720702,0.450684284014
-5.65772088445,1.43577807408,2.16154250024,-2.42550883538
-13.9970801193,0.652490958615,0.756547793455,-0.811701954771
-15.5464393541,-1.09079615684,-0.248446913331,2.25210492584
-6.20579858886,1.05591672771,1.43655837989,3.55591180644
-9.34515782366,6.08262961225,4.6815636731,4.35971868705
-6.04451705846,6.57934249679,1.61656896632,1.86352556766
-8.39387629326,-3.68394461866,-0.158425740468,0.657332448269
-8.24323552807,-4.45723173411,0.28657955275,0.841139328876
-7.73259476287,1.99948115043,2.08158484596,1.40494620948
-1.19195399767,5.44619403498,2.14659013918,4.33875309009
-4.17131323247,9.69290691952,2.8915954324,7.3125599707
-9.36067246727,-0.0503801959276,0.636600725611,4.25636685131
3.45996829792,1.39633268861,3.26160601883,8.44017373192
-4.81939093687,1.20304557316,4.60661131204,6.81398061252
-2.11875017167,2.2297584577,3.19161660526,5.36778749313
-5.53810940648,2.20647134225,2.61662189848,5.41159437374
-8.44746864128,0.213184226792,0.14162719169,2.06540125435
-4.90682787608,-5.01010288866,-0.433367515096,2.01920813496
-2.87618711088,1.38660999588,-1.09836222188,6.43301501556
-2.16554634568,2.65332288043,-1.97335692867,7.21682189617
1.64509441952,5.52003576497,-1.00835163545,7.60062877678
0.725735184715,6.97674864952,0.116653657769,14.0644356574
-0.263624050087,2.54346153406,-0.778341049016,15.538242538
-4.54298328489,3.3601744186,-0.433335755799,12.5720494186
-2.81061409882,-6.27255813954,-3.54626090116,-8.70851744186
-3.1676049201,-9.09556165308,-3.11821939091,-10.3050836042
-13.3545957414,-6.02856516663,-0.800177880654,-8.39164976652
-6.64158656265,-12.3015686802,-3.2521363704,-10.6982159289
-3.57857738393,-9.72457219374,-3.44409486015,-11.8947820912
-6.81556820521,-3.82757570728,-2.91605334989,-12.7513482535
3.14744097351,0.619420779163,-1.02801183964,-7.88791441586
-0.129549847763,-7.21358273439,0.920029670619,-11.2744805782
-3.90654066904,-10.9165862479,0.998071180871,-14.2110467405
-4.21353149033,-7.00958976149,1.85611269113,-10.7776129029
2.3794776884,0.79740672496,1.55415420138,-4.50417906519
-2.02751313288,1.34440321141,0.542195711634,-5.36074522752
-1.59450395415,-4.99860030214,1.93023722189,-7.35731138985
-6.28149477544,-12.9016038157,-2.03172126786,-8.82387755219
-0.98848559671,-9.87460732924,-2.1136797576,-7.25044371452
0.114523582,-1.27761084279,0.224361752651,-5.26700987685
-2.05246723927,-1.14061435634,1.05240326291,-5.25357603918
0.120541939446,-4.72361786989,0.910444773162,-6.96014220152
-0.166448881828,-7.37662138345,1.72848628342,-9.09670836385
-5.11343970311,-7.00962489699,-0.0134722063267,-7.76327452618
0.549569475617,2.45737158945,1.61456930393,-0.569840688517
-2.10742134567,4.9443680759,1.24261081418,0.78359314915
2.58558783305,2.09136456235,1.63065232444,1.66702698682
4.93859701178,2.6883610488,2.15869383469,4.12046082448
10.0116061905,7.81535753525,4.10673534494,5.22389466215
6.66461536923,19.0123540217,5.3447768552,9.17732849982
8.33762454794,10.8293505082,1.73281836545,7.69076233749
-1.24936627334,0.866346994597,2.03085987571,4.97419617515
-4.03635709461,-3.25665651895,2.06890138596,-1.91236998718
-8.55334791589,1.6203399675,2.38694289622,-2.19893614951
-9.06033873717,6.68733645394,0.834984406469,-1.50550231185
-4.65732955845,4.14433294039,0.623025916728,0.777931525821
-3.91432037972,-0.0686705731569,0.25106742698,-2.12863463651
4.06868879899,-2.74167408671,-0.680891062766,-1.29520079885
0.221697977715,-5.93467760026,-2.97284955251,-1.28176696118
-7.30529284356,-1.2476811138,0.305191957745,-0.658333123512
-1.04228366484,-1.33068462736,-0.176766532,-4.02489928584
-0.329274486117,-4.51368814091,-0.368725021748,-3.74146544818
-0.326265307391,-6.33669165446,-0.650683511492,-0.52803161051
-5.62325612867,-1.65969516801,0.897357998765,0.135402227157
-9.22024694995,1.83730131844,-0.584600490984,-2.69116393518
-3.44723777123,0.234297804884,-0.846558980727,-4.28773009751
-0.274228592505,-2.18870570866,-1.21851747048,-2.35429625984
2.54878058621,-1.82170922221,-1.65047596022,4.31913757783
5.50178976494,-1.32471273576,-3.03243444997,5.63257141549
1.57479894365,5.43228375068,-1.92439293971,5.37600525316
9.39780812238,8.95928023713,-1.53635142945,8.57943909083
12.9308173011,7.28627672358,0.0416900807977,10.9228729285
7.52382647982,7.36327321003,0.649731591053,9.16630676616
7.41683565854,9.92026969649,2.24777310131,13.7597406038
10.3698448373,13.9572661829,2.64581461156,13.5731744415
12.962854016,10.8342626694,1.93385612182,11.3366082792
7.5358631947,7.02125915583,0.83189763207,11.2800421168
8.29887237343,4.18825564228,0.859939142327,10.5334759545
14.9818815522,7.13525212873,-0.182019347423,10.3669097922
17.7348907309,12.3022486152,1.30602216283,12.8603436298
11.2578999096,7.07924510162,-0.335936326908,9.6137774675
3.16090908832,5.27624158808,-0.577894816659,11.6572113052
5.49391826704,4.68323807453,1.2401466936,11.6306451428
2.49692744576,5.52023456098,0.66818820385,10.4140789805
4.06993662448,9.91723104742,1.17622971411,12.2575128182
-1.5470541968,8.65422753387,1.78427122436,11.4009466558
1.18595498193,-0.238775979677,-2.20768726539,4.4643804935
-2.34103583935,-8.54177949323,-5.25964575513,-0.152185668833
-0.548026660632,-3.97478300678,-4.62160424488,2.74124816883
3.09498251809,0.752213479675,-4.07356273462,3.4746820065
-0.0620083031899,-0.980790033878,-2.05552122437,1.89811584417
-3.80899912446,-0.213793547431,-1.52747971411,3.57154968183
-7.87598994574,-8.56679706098,-2.36943820386,-1.2450164805
-3.22298076702,-4.55980057453,-1.0213966936,2.69841735717
-2.72997158831,-2.82280408809,-2.26335518335,4.52185119484
3.02303759042,2.30419239836,-0.125313673096,7.7352850325
-5.07395323086,-1.52881111518,-0.517272162841,-0.0312811298299
-7.26094405213,-5.86181462873,-3.65923065258,-2.27784729216
-7.65793487342,-8.24481814229,-2.60118914233,-1.3644134545
-6.40492569469,-0.157821655834,-0.843147632077,0.989020383171
-2.42191651597,-2.18082516939,-1.08510612182,0.152454220838
-0.838907337253,-3.38382868294,-0.717064611566,2.82588805851
-3.98589815853,-1.87683219649,-1.21902310131,4.42932189617
1.09711102019,-3.13983571004,-1.28098159106,2.99275573384
2.33012019892,3.95716077642,-0.802940080801,7.45618957151
-1.28687062236,6.53415726286,-1.50489857055,8.19962340917
-6.76386144364,4.11115374931,1.39314293971,6.40305724684
-6.85085226492,7.13815023575,3.03118444996,12.0564910845
-8.0378430862,11.3651467222,2.41922596021,13.3899249222
-3.74483390748,8.65214320865,-0.50273252953,8.46335875984
-1.50182472875,8.6591396951,1.20530898072,7.10679259751
-0.828815550034,5.11613618155,0.813350490978,9.65022643518
-6.10580637131,5.28313266801,2.52139200123,6.57366027284
-12.0727971926,12.0201291545,5.74943351149,10.2970941105
-1.08978801387,16.3171256409,5.44747502175,11.3005279482
10.5532211649,8.10412212736,3.335516532,7.33396178584
13.3762303436,2.5711186138,1.08355804225,6.09739562351
3.8092395223,-1.00188489975,0.601599552505,2.66082946118
7.61224870101,0.865111586696,0.00964106275933,2.03426329885
7.77525787974,6.57210807315,1.98768257302,5.97769713651
5.42826705846,8.8391045596,3.51572408327,6.44113097418
0.641276237184,5.52610104605,3.50376559352,4.90456481185
6.70428541591,-2.4669024675,1.63180710378,1.20799864951
1.81729459463,2.10009401895,1.90984861403,3.12143248718
8.12030377334,6.0570905054,2.18789012429,4.21486632485
1.19331295207,0.574086991845,-0.374068365458,-2.48169983749
-4.55367786921,-8.15891652171,-1.9260268552,-7.58826599982
-4.97066869049,-8.93192003525,-0.237985344949,-8.91483216215
-6.10765951176,-6.0349235488,-0.519943834694,-5.66139832448
0.245349666962,-1.59792706236,-1.29190232444,-3.29796448682
0.288358845683,3.23906942409,-0.613860814185,-2.41453064915
7.0613680244,-3.26393408946,-2.29581930393,-4.19109681148
-1.36562279688,-5.95693760301,-0.677777793677,-7.63766297382
11.8973863818,-3.50994111656,0.220263716579,-8.38422913615
2.44039556057,-0.752944630112,0.0983052268311,-6.14079529848
0.0334047392898,-0.24594814366,0.266346737088,-7.73736146081
4.92641391801,-9.80895165721,-1.60561175266,-10.7839276231
-0.450576903269,-6.18195517076,0.132429757596,-5.94049378548
3.86243227545,-3.62495868431,-1.91952873215,-5.94705994781
5.73544145417,-0.857962197864,-0.701487221897,-7.54362611015
13.2084506329,-0.540965711421,0.716554288359,-7.49019227248
7.69145981162,-9.55396922497,-1.91540420139,-8.67675843481
0.87446899034,-11.3869727385,0.0626373088671,-11.5733245971
-0.532521830944,-7.14997625207,0.140678819123,-12.3598907595
-4.45951265222,-3.76297976562,-2.06127967062,-9.19645692181
-7.9265034735,-4.22598327917,-3.41323816037,-11.2630230841
-10.3334942948,-8.32898679272,-1.72519665012,-13.2895892465
-11.9404851161,-9.48199030627,-0.12715513986,-9.94615540881
-11.9574759373,-6.78499381983,-0.899113629603,-6.77272157114
-11.8644667586,-4.49799733338,-0.0410721193512,-8.79928773348
-8.74145757989,-0.351000846917,1.8669693909,-6.50585389581
-11.1684484012,-1.32400436047,1.42501090116,-7.29242005814
0.421569767459,-6.99441497092,-1.62799055233,-7.17739462209
-3.95159963833,-5.61619091626,-1.83189399836,-8.95921222647
-1.92476904411,4.0920331384,0.404202555615,-4.91102983085
-5.1979384499,-2.18974280694,-1.37970089041,-6.50284743522
-7.51110785569,-7.95151875228,-1.98360433644,-9.8246650396
-12.5242772615,-6.83329469762,-0.817507782464,-9.57648264398
-11.7074466673,-2.49507064296,1.34858877151,-6.64830024835
-7.00061607305,-3.9868465883,-1.55531467452,-7.63011785273
-6.83378547883,-7.24862253365,-3.54921812054,-7.4019354571
3.43304511538,-6.80039847898,-2.58312156657,-4.96375306148
-1.94012429041,-6.44217442432,-0.797025012595,-2.87557066586
-5.99329369619,-3.30395036966,-0.0309284586219,-2.96738827023
-1.70646310198,1.614273685,0.0151680953531,-1.37920587461
-3.88963250777,0.652497739662,0.711264649326,-1.84102347899
-5.24280191356,-4.83927820568,0.687361203298,-3.78284108336
-3.29597131934,0.0989458489785,0.103457757275,-3.44465868774
-2.92914072512,-3.65283009636,-1.92044568875,-5.02647629212
-3.30231013092,3.3253939583,-0.0443491347796,-2.09829389649
-2.1954795367,3.84361801296,0.471747419197,1.09988849913
7.79135105752,1.47184206762,2.48784397317,5.45807089475
-0.311818348273,-1.18993387771,1.70394052714,-2.24374670962
1.66501224594,2.16829017695,1.37003708112,1.064435686
5.05184284016,4.3665142316,0.366133635089,1.73261808162
4.34867343437,3.11473828626,-0.347769810938,0.0908004772482
-2.16449597142,-2.49703765908,-0.101673256962,-3.11101712713
-2.7076653772,-2.19881360442,3.09442329701,-5.87283473151
-5.73083478299,3.40941045024,2.51051985098,-4.97465233588
-2.27400418878,1.84763450491,0.436616404957,-0.756469940258
-0.497173594566,3.54585855956,2.20271295893,2.11171245537
2.48965699965,-2.56591738578,3.29880951291,-2.33010514901
6.96648759386,-1.07769333111,2.29490606688,2.31807724661
8.74331818808,2.77053072354,2.79100262085,4.91625964224
8.36014878229,7.06875477821,2.78709917483,4.94444203786
3.4069793765,5.39697883286,4.0931957288,5.92262443348
4.47380997072,0.745202887527,4.51929228277,2.98080682911
8.39064056493,-0.456573057811,5.65538883675,7.53898922473
4.78747115914,5.36165099684,5.25148539072,9.64717162035
4.59430175336,8.0198750515,1.72758194469,2.40535401598
7.36113234757,5.69809910616,-0.126321501331,4.1735364116
7.74796294178,-3.37367683917,-1.96022494736,1.20171880722
5.864793536,1.03454721548,-1.35412839338,6.83990120285
3.19162413021,0.942771270144,-0.588031839412,8.13808359847
3.72845472442,6.31099532481,1.39806471457,7.33626599409
0.695285318638,7.35921937946,3.09416126853,7.67444838972
6.83211591285,4.77744343413,0.950257822511,8.93263078534
9.81894650706,-5.17433251121,-1.72364562352,-0.0991868190349
2.70577710128,0.263891543451,-3.42754906954,0.378995576588
6.62260769549,2.77211559811,-1.45145251557,2.45717797221
-2.5905617103,3.08033965277,-0.445355961598,4.73536036783
5.19626888392,2.29856370743,0.31074059238,6.39354276346
0.743099478132,-1.42321223792,0.936837146353,5.35172515908
6.91993007234,6.66501181675,2.10293370033,10.9599075547
3.84676066656,3.33323587141,0.0490302543003,0.658089950328
3.77359126077,-7.24854007393,-5.24487319172,-6.17372765405
-1.08957814502,-8.97031601927,-4.50877663775,-5.27554525842
-3.2427475508,-8.68209196461,-2.87268008378,-7.4873628628
-4.79591695659,-3.11386790995,-1.9365835298,-3.52918046718
2.95091363762,0.844356144706,-1.38048697583,2.39900192845
-0.302255768162,7.28258019937,1.57560957814,2.66718432407
6.55457482605,3.58080425403,1.24170613211,6.58536671969
8.35140542026,-0.620971691314,-0.362197313909,7.30354911532
2.64823601448,7.37725236335,0.483899240066,8.26173151094
7.64506660869,7.83547641801,1.26999579404,4.19991390656
3.8818972029,7.11370047267,0.576092348012,3.77809630219
9.47872779712,4.39192452733,0.0621889019822,7.46627869781
3.50555839133,-1.11985141801,0.828285455958,3.64446109343
4.09238898555,-2.66162736335,0.624382009933,1.21264348906
3.58921957976,-0.56340330869,-0.959521436096,-0.45917411532
6.37605017397,1.94482074597,0.316575117879,1.0690082803
3.30288076818,-4.71695519936,-1.78732832814,0.617190675927
-1.91028863761,-4.55873114471,-1.18123177418,0.535373071551
10.5065419566,2.73949290995,0.164864779803,5.41355546717
-0.926627449175,-0.642283035391,-2.02903866623,2.5917378628
-6.58979685496,-2.91405898073,-2.16294211225,0.629920258422
-10.6629662608,-6.87583492607,-3.22684555828,-3.07189734596
-13.4961356665,-7.75761087141,-2.5107490043,-4.81371495033
-9.02930507232,-7.10938681674,-2.08465245033,-7.31553255471
-4.21247447811,-2.44116276209,-0.788555896357,-6.86735015908
-4.5156438839,-4.60293870743,-3.11245934238,-3.93916776346
0.261186710319,-4.22471465277,-2.84636278841,2.43901463216
4.60801730453,-2.69649059811,-2.57026623444,3.89719702779
-1.39515210126,0.47173345655,-1.94416968046,3.60537942341
-3.83832150704,9.63995751122,0.241926873514,3.47356181903
-3.56149091283,3.94818156587,-0.111976572516,-0.568255785343
-6.40466031861,-4.70359437946,-0.84588001854,-0.79007338972
5.3021702756,-1.79537032481,-0.489783464571,2.7481090059
-0.010999130187,-0.517146270147,0.00631308940501,2.83629140153
1.54583146403,7.22107778452,-2.44759035662,5.49447379715
4.46266205824,3.32930183917,-4.35149380265,4.85265619277
-4.69050734755,3.21752589384,-1.17539724867,-1.4691614116
-12.7236767533,-6.05425005151,-3.0693006947,-5.31097901598
0.103153840879,-1.73602599684,-3.16320414072,3.00720337964
-7.87001556491,3.59219805781,-2.66710758675,2.85538577527
-8.88318497069,6.76042211248,-0.72101103278,0.283568170891
-6.83635437648,1.66864616713,-0.984914478806,3.93175056651
-1.69952378227,-4.94312977821,-2.10881792483,-0.330067037861
-6.76269318805,2.94509427645,-1.81272137086,0.0281153577616
-4.76586259384,3.51331833112,0.0033751831179,3.42629775339
-0.239031999627,6.37154238578,1.94947173709,2.87448014901
-4.15220140541,5.79976644043,2.77556829106,4.64266254463
-1.3953708112,7.1779904951,3.09166484504,7.95084494026
6.32145978302,13.0862145498,2.68776139901,12.9390273359
8.86829037723,17.6544386044,2.68385795299,17.6772097315
5.36512097144,15.7726626591,3.26995450696,11.3353921271
1.31195156565,3.59088671374,-0.343948939069,3.06357452275
-3.21121784014,1.5391107684,0.502147614909,0.701756918374
-1.60438724592,2.85733482306,0.908244168877,-0.100060686003
-7.29755665171,4.18555887772,2.15434072285,-1.15187829038
-8.81072605749,3.44378293238,0.910437276827,-1.63369589476
-8.27389546328,-3.78799301296,-1.5034661692,-3.37551349913
-7.66706486906,-6.82976895831,-2.59736961523,-7.44733110351
-10.5802342749,-4.21154490364,-0.381273061248,-4.82914870789
-10.2734036806,3.70667915102,2.32482349272,-4.15096631226
-9.98657308643,-3.24509679432,1.1409200467,-7.77278391664
-18.2997424922,-4.91687273966,0.75701660067,-5.80460152102
-10.932911898,-9.498648685,0.253113154642,-9.39641912539
-13.2860813038,-14.1204246303,-3.01079029138,-13.1282367298
-5.17925070957,-9.99220057568,-3.03469373741,-12.6800543341
0.577579884637,-6.52397652102,-0.758597183434,-8.71187193852
10.2244104789,-11.9457524664,-1.47250062946,-11.0836895429
10.2312410731,-13.7775284117,0.183595924511,-12.2655071473
6.06807166728,-1.32930435704,3.60969247849,-1.53732475165
13.8849022615,2.98891969762,3.07578903246,0.880857643972
11.1917328557,2.63714375228,2.22188558643,0.0190400395959
9.56856344992,-2.37463219306,1.37798214041,-7.40277756478
8.24539404413,-5.1164081384,1.67407869438,-5.27459516916
11.7222246383,-1.47818408373,2.43017524836,0.0935872264663
12.1090552326,1.05003997092,3.65627180233,0.65176962209
18.4239316861,1.25726017443,0.00488372092877,7.16481104651
17.2007078603,-1.82030986769,0.114387274534,9.62431943554
15.6274840345,-6.51787990981,-1.99610917186,9.11382782458
15.3842602088,-2.29544995192,-2.66660561825,7.10333621361
14.091036383,-2.26301999404,-4.36710206464,4.21284460264
6.39781255724,-2.53059003616,-5.59759851104,4.82235299167
5.39458873147,-7.24816007827,-3.88809495743,6.2318613807
8.1213649057,-2.23573012039,-0.578591403824,6.74136976973
8.96814107995,5.58669983749,0.670912149784,10.9408781588
11.6949172542,7.44912979537,0.0404157033954,12.1703865478
10.4416934284,8.72155975326,0.409919256999,14.0098949368
10.0984696026,-0.916010288864,-3.01057718939,8.07940332586
8.06524577688,-9.85358033098,-2.63107363578,-0.631088285111
6.55202195112,-3.7711503731,-1.74157008218,-1.62157989608
3.99879812535,-1.57872041521,-2.89206652857,1.88792849295
6.50557429958,-0.326290457328,-1.04256297496,0.927436881982
13.7223504738,-7.89386049945,-2.56305942135,0.796945271014
-4.34087335195,-9.33143054156,-3.95355586775,-0.703546339955
-0.874097177708,-2.88900058368,-2.01405231414,3.61596204908
0.402678996528,-0.00657062579558,-3.06454876053,1.22547043811
11.4394551708,-3.73414066791,-4.88504520692,-1.41502117286
5.646231345,-5.27171071003,-4.68554165331,-2.82551278383
6.27300751923,-6.07928075214,-3.79603809971,0.283995605201
3.65978369347,0.183149205739,-4.9565345461,3.07350399423
2.6765598677,8.58557916362,-3.73703099249,7.86301238326
4.79333604194,14.2880091215,-1.56752743889,11.8425207723
6.72011221618,5.87043907938,-1.19802388528,6.00202916133
10.7868883904,-4.63713096274,-3.11852033167,3.03153755036
15.8736645646,6.42529899515,-0.239016778061,8.64104593939
-1.28955926112,9.78772895303,1.39048677554,7.59055432842
-10.1627830869,4.26015891092,-1.14000967085,3.99006271745
-4.84600691264,-3.0474111312,-1.04050611724,3.18957110648
-18.4792307384,-4.71498117332,-0.611002563634,-1.53092050449
-12.5124545642,4.57744878457,-0.151499010026,-0.181412115455
-1.15567838994,3.79987874245,-1.83199545642,2.15809627358
-4.13890221571,3.49230870033,0.887508097188,1.42760466261
-0.402126041474,3.08473865822,1.9670116508,2.74711305164
-8.02534986723,0.2071686161,2.15651520441,-1.12337855933
-7.308573693,1.56959857398,0.926018758011,-0.253870170299
-3.76179751877,7.61202853187,2.81552231162,1.82563821873
-5.23502134453,11.3944584897,6.63502586523,2.09514660776
-15.8982451703,8.14688844763,4.22452941883,1.2946549968
-14.9114689961,1.53931840551,3.45403297244,-1.92583661417
-3.35469282183,1.6917483634,2.35353652605,-1.72632822514
0.82208335241,6.18417832128,3.20304007965,-1.18681983611
-3.42114047335,3.34660827916,1.97254363326,-6.73731144708
-8.72436429912,3.32903823705,2.72204718687,-5.74780305805
-9.08758812489,-4.03853180508,1.13155074048,-5.94829466902
-1.53081195064,-1.75610184719,3.54105429408,-5.70878627998
-7.87403577641,4.00632811069,5.04055784769,-5.87927789095
-15.5172596022,2.33875806858,4.9200614013,-9.11976950192
-16.1004834279,-1.59881197354,5.00956495491,-8.19026111289
-18.2537072537,-6.76638201565,1.08906850852,-8.88075272386
-9.64693107947,-6.29395205777,0.958572062122,-16.0512443348
-2.94015490524,-2.78152209989,1.70807561573,-15.7217359458
-6.493378731,-3.44909214201,-1.04242083066,-12.6522275568
-12.9366025568,-8.24666218412,-1.74291727706,-13.6627191677
-9.44982638253,-3.39423222624,0.516586276553,-8.2032107787
-14.8130502083,4.64819773164,2.60608983016,-5.63370238967
-6.36627403406,1.52062768952,1.80559338377,-7.13419400064
-10.0094978598,1.52305764741,1.57509693737,-10.2646856116
-9.47272168559,-4.10451239471,1.88460049098,-15.3351772226
-12.0259455114,-2.90208243683,1.16410404459,-12.5656688335
-9.27916933712,-3.29965247894,-1.2563924018,-10.7761604445
-7.06239316289,2.65277747894,0.353111151806,-10.0366520555
-1.67561698865,5.20520743682,3.25261470542,-3.46714366645
-6.90884081441,2.5176373947,3.47211825902,-5.49763527742
-6.66206464018,-1.96993264741,3.31162181263,-6.70812688839
-0.515288465947,2.14249731047,3.98112536624,-1.47861849936
-0.158512291709,3.21492726835,1.27062891984,0.220889889672
-3.58173611747,-0.272642773758,1.18013247345,-3.6496017213
-5.63495994324,-5.25021281587,1.36963602706,-5.68009333226
-2.088183769,-4.59778285799,2.12913958067,-5.81058494323
-6.71140759477,-1.46535290011,1.56864313427,-5.0310765542
1.21536857947,3.33707705777,3.12814668788,-1.16156816517
3.4721447537,2.57950701565,2.91765024148,-2.35205977614
-3.74107907207,-2.86806302646,1.2171537951,-4.38255138711
-0.484302897828,1.44436693141,2.6266573487,-1.50304299808
-0.747526723593,6.1567968893,4.07616090231,-1.47353460905
0.22924945064,5.24922684718,5.63566445592,-2.12402622002
-2.14397437512,3.77165680507,6.52516800953,-4.36451783098
1.19280179912,2.10408676295,2.54467156313,-1.87500944195
-2.23042202665,-4.08348327917,2.47417511674,-4.27550105292
1.23635414758,4.10894667872,3.98367867035,-1.20599266389
7.58313032182,3.9613766366,1.16318222395,0.623515725141
0.699906496055,-0.43619340552,0.0626857775605,-1.47697588583
0.286682670288,-7.90376344763,2.38218933117,-6.3074674968
-8.00654115547,-7.63133348975,0.501692884776,-6.97795910776
-6.43976498124,-1.86890353187,-0.658803561615,-3.57845071873
-9.90298880701,-2.19647357398,-1.24930000801,-7.7089423297
-8.80621263277,-8.1640436161,-3.4397964544,-11.4494339407
-8.28943645853,-12.0116136582,-3.38029290079,-12.3799255516
-12.4726602843,-15.6491837003,-2.64078934718,-16.3604171626
-14.4458841101,-7.60675374245,0.768714206421,-11.6509087736
-14.5991079358,0.535676215426,3.04821776003,-4.27140038455
-11.0423317616,-2.25189382669,1.74772131364,-4.67189199551
-16.8155555874,-5.06946386881,1.78722486724,-4.96238360648
-11.8787794131,-4.82703391092,1.84672842085,-1.90287521745
-0.502003238886,-0.95460395304,0.186231974461,1.11663317158
2.36477293535,4.92782600484,0.945735528065,3.43614156061
2.14154910958,4.97025596273,1.68523908167,5.27564994964
-5.60167471618,-4.67731407939,2.05474263528,0.965158338673
-3.92489854194,-5.30488412151,2.38424618889,-0.875333272295
-2.93812236771,2.49754583638,1.8037497425,4.51417511674
1.88865380652,9.84997579426,2.6232532961,12.0436835058
9.68542998077,5.88240575214,1.41275684971,9.2931918948
6.982206155,4.42483571003,1.32226040332,6.59270028383
0.988982329232,-3.86273433209,0.561763956928,3.04220867286
2.64575850347,1.09969562579,-0.428732489465,3.86171706189
7.0725346777,5.12212558368,-1.34922893586,7.96122545092
4.24931085193,6.37455554156,-0.679725382251,7.29073383995
7.62608702617,-2.87301450056,-3.24022182864,3.35024222899
7.8228632004,-5.35058454268,-1.99071827504,0.849750618017
5.62963937465,2.09184541521,-0.721214721427,5.20925900705
6.03641554888,7.77427537309,-2.06171116782,12.3787673961
6.08319172311,6.34670533097,-0.902207614214,10.5282757851
2.20996789735,1.48913528885,-1.17270406061,8.35778417414
9.33674407158,-0.178434753259,-1.653200507,10.1272925632
14.6335202458,4.44399520462,-3.48369695339,12.7168009522
8.04029642005,3.28642516251,-6.93419339978,10.0563093412
3.30707259429,2.21885512039,-5.48468984617,6.14581773027
11.7938487685,-1.75871492173,-4.34518629257,4.9153261193
14.3406249428,-6.62628496384,-4.68568273896,5.14483450833
20.267401117,0.836144994042,-2.99617918535,7.55434289736
7.99417729124,5.70857495192,-3.73667563175,9.16385128639
11.1009534655,3.54100490981,-4.14717207814,7.55335967542
22.1377296397,-5.92656513231,-6.98766852453,5.59286806446
24.5745058139,-7.06413517443,-6.82816497092,4.38237645349
1.04704432207,-1.04276291633,1.19507081037,-7.87898111723
1.74615848286,-2.3345075733,0.192620629157,-9.26420773626
0.715272643647,-0.716252230282,3.37017044794,-9.18943435529
