-7.11083212207,-14.9584920058,-1.17761264536,-12.2610465116
-10.5266187225,-18.3045393758,-2.2283256844,-15.6860706315
-3.86240532295,-14.3005867458,-1.85903872345,-14.3010947514
0.981808076613,-5.53663411577,-1.3697517625,-9.07611887131
2.95602147617,-7.14268148576,-0.570464801553,-9.17114299121
2.89023487573,-11.7587288557,-0.521177840601,-12.1261671111
-1.17555172471,-12.0647762257,0.658109120348,-9.871191231
-1.08133832515,-9.72082359572,0.917396081299,-9.14621535089
0.412875074413,-8.43687096571,-0.113316957752,-6.96123947079
-1.97291152603,-12.1029183357,-1.6140299968,-6.56626359068
-5.84869812647,-17.7489657057,-1.32474303585,-13.7812877106
-7.13448472691,-20.8550130757,-4.2854560749,-15.6463118305
-4.73027132735,-15.6410604457,-6.42616911395,-13.1013359504
1.06394207221,-6.44710781564,-1.246882153,-6.66636007027
-0.361844528226,-12.2831551856,-1.00759519205,-7.75138419016
-12.4976311287,-23.3592025556,-7.1983082311,-18.9764083101
-16.2034177291,-19.5752499256,-7.91902127015,-17.14143243
-11.6492043296,-11.8612972956,-4.6597343092,-10.1364565499
-12.67499093,-9.19734466558,-2.61044734824,-9.85148066975
-11.6407775304,-9.19339203557,-2.9011603873,-13.4965047896
-9.85656413087,-14.6694394056,-4.38187342634,-14.9715289095
-9.18235073131,-8.49548677554,-0.512586465396,-7.31655302943
-8.68813733174,-3.34153414553,-0.383299504443,-2.80157714933
-5.51392393218,0.862418484488,-0.504012543493,-1.33660126923
-2.58971053263,3.27637111449,-1.24472558254,-0.171625389123
-0.685497133061,4.47032374451,0.474561378407,4.53335049098
-1.4712837335,8.24427637452,0.893848339358,8.10832637109
1.77292966605,12.5482290045,1.60313530031,7.43330225119
6.06714306561,17.1321816345,1.89242226126,10.2682781313
10.0913564652,18.6761342646,0.931709222212,14.2132540114
7.14556986474,15.4600868946,1.97099618316,15.0182298915
10.3597832643,14.1940395246,2.91028314411,14.3632057716
14.3639966639,20.2979921546,4.51957010506,15.4281816517
15.8382100634,24.6619447846,4.21885706601,18.1931575318
15.242423463,19.5958974146,2.18814402696,17.8981334119
12.5866368625,11.7598500446,3.05743098791,14.273109292
10.3008502621,11.0638026746,4.67671794886,13.9780851721
11.1550636617,13.2177553047,2.64600490981,13.3230610522
12.3792770612,10.4917079347,-0.154708129237,9.91803693234
7.27349046078,4.70566056469,-0.205421168284,4.86301281244
1.76770386034,-1.8603868053,-1.30613420734,0.967988692548
-1.7380827401,-5.42643417529,-0.836847246384,-3.07703542735
-2.81386934054,-0.822481545278,-0.837560285436,-2.99205954724
-3.62965594098,2.31147108474,-0.958273324482,-1.49708366714
-3.74544254142,3.68542371475,0.781013636468,1.91789221296
-3.19122914186,1.46937634476,-0.869699402585,3.69286809307
-4.9070157423,-0.826671025221,0.169587558368,0.357843973174
-3.27280234274,4.63728160479,1.64887451932,4.09281985328
2.47141105682,11.4112342348,0.678161480271,8.39779573338
4.15562445638,10.8351868648,1.45744844122,8.72277161349
6.47983785594,8.21913949483,3.57673540217,10.2877474936
6.6740512555,11.4730921248,4.22602236312,14.4427233737
8.13826465507,11.3170447549,2.38530932407,12.2476992538
6.92247805463,13.9309973849,2.45459628502,12.4826751339
2.90669145418,11.5449500149,2.60388324597,9.48765101401
0.690904853749,4.68890264488,1.25317020692,2.59262689411
0.715118253305,5.2328552749,0.692457167872,1.60760277422
1.02933165286,11.0268079049,-1.11825587118,5.85257865432
-1.44645494757,12.4607605349,2.28103108977,8.47755453443
0.897758451989,8.64471316494,1.09031805072,5.93253041453
1.70197185155,1.38866579496,-0.300394988324,1.85750629463
3.76618525111,4.63261842496,1.36889197263,7.28248217474
5.93039865067,8.59657105498,-0.641821066423,8.10745805484
6.51461205023,7.95052368499,-0.892534105475,4.47243393495
2.93882544979,4.554476315,0.706752855476,2.92740981505
0.523038849344,-0.921571054991,0.376039816427,-0.0276143048432
0.687252248907,-4.37761842497,-0.194673222624,-4.25263842474
0.0114656484729,1.03633420504,1.41461373833,1.17233745537
-2.39432095197,4.24028683505,1.41390069928,3.71731333547
0.239892447586,1.58423946507,-1.29681233977,2.77228921557
-1.25589415285,-5.61180790492,-1.92752537882,-0.472734904321
-4.63168075329,-4.55785527491,0.28176158213,-1.81775902422
-3.10746735373,1.9060973551,0.391048543082,-0.352783144113
-2.34325395417,1.80004998512,-0.389664495971,0.582192735992
-2.65904055461,2.74400261513,-0.960377535019,1.5571686161
-1.64482715505,1.27795524515,2.47890942593,2.9621444962
-1.27061375549,2.84190787515,3.74819638688,5.5271203763
1.97359964407,6.64586050517,2.89748334784,7.53209625641
0.607813043636,9.28981313518,2.80677030878,7.39707213651
-0.347973556803,6.90376576519,3.78605726974,4.75204801662
-0.683760157248,4.8677183952,3.02534423069,4.88702389672
-1.34954675769,3.07167102522,2.43463119164,4.05199977683
-0.23533335812,4.90562365523,2.72391815258,2.81697565693
-2.24111995857,7.63957628524,3.90320511353,4.78195153703
-4.32690655901,1.31352891526,1.37249207449,-2.65307258286
-5.26269315944,-4.94251845473,1.08177903544,-5.82809670275
-4.69847975988,-2.49856582472,3.09106599639,-1.25312082265
-2.50426636032,2.9853868053,3.76035295734,2.92185505745
1.46994703924,5.5793394353,1.87963991829,2.31683093756
1.2241604388,5.49329206532,-0.161073120762,2.67180681766
-0.111626161641,1.94724469533,-0.461786159813,2.30678269777
-1.04741276208,3.47119732534,3.11750080114,4.96175857787
2.34680063748,10.6751499554,4.42678776209,11.596734458
4.54101403704,8.68910258537,1.02607472304,8.68171033808
7.3852274366,4.69305521539,0.91536168399,6.84668621818
2.12944083616,1.0970078454,2.87464864494,6.53166209829
0.763654235721,-1.66903952459,1.26393560589,2.78663797839
3.22786763528,0.294913105419,-1.32677743316,1.3516138585
0.502081034836,4.36886573544,-0.287490472205,4.4765897386
2.4862944344,2.41281836545,0.891796488744,3.7415656187
2.51050783396,-1.49322900454,1.49108344969,2.14654149881
3.76472123352,-0.909276374528,2.07037041065,7.30151737891
6.27893463308,3.65467625549,2.86965737159,9.93649325902
10.1031480326,8.68862888549,4.05894433255,12.7414691391
12.2673614322,7.30258151551,3.3582312935,12.3364450192
11.8415748318,1.22653414552,0.987518254449,6.88142089933
7.70578823132,-0.169513224464,-0.913194784604,2.73639677944
8.63000163088,3.83443940555,-4.05390782365,4.10137265954
8.58421503045,1.55839203556,-2.0446208627,0.736348539644
3.44842843,-3.95765533443,-1.91533390175,-5.07867558025
2.71264182956,-9.81370270441,-4.4860469408,-8.01369970015
4.71685522913,-12.9397500744,-5.98675997985,-10.58872382
3.78106862869,-8.17579744439,-3.5074730189,-10.7437479399
-1.04471797176,-5.17184481438,-2.41818605795,-10.2787720598
-1.04050457219,-7.30789218436,-1.838899097,-9.68379617973
-4.81629117263,-12.6739395544,-3.44961213605,-11.9888202996
-6.58207777307,-14.0299869243,-6.4103251751,-13.0938444195
-5.48786437351,-10.0660342943,-4.60103821415,-12.3088685394
-6.58365097395,-10.5820816643,-4.4517512532,-15.5138926593
-7.22943757439,-15.1081290343,-5.68246429224,-17.5989167792
-10.9352241748,-16.4441764043,-4.7431773313,-15.2139408991
-10.9410107753,-16.3102237743,-3.63389037035,-13.808965019
-8.83679737571,-10.4762711443,-2.6546034094,-12.2539891389
-8.36258397615,-6.64231851425,-2.09531644845,-11.1590132588
-10.9783705766,-7.88836588424,0.0439705125063,-9.64403737869
-10.614157177,-8.76441325423,-0.186742526545,-10.4990614986
-9.36994377747,-8.29046062422,1.15254443441,-8.47408561848
-6.9057303779,-2.9865079942,1.91183139536,-4.15910973838
-2.65989825581,6.06934593023,3.94304869185,-3.39397165697
-3.65547318484,3.01713305142,3.70762051363,-2.48539410135
-5.22104811389,1.97492017259,2.16219233542,-0.206816545731
-4.48662304293,2.78270729377,3.9067641572,0.811761009889
-0.732197971971,8.95049441495,5.20133597898,6.48033856551
2.09222709899,14.5182815361,3.97590780076,12.7389161211
-3.01334783006,6.0160686573,2.11047962254,3.90749367675
-0.908922759103,0.61385577848,0.495051444326,-0.253928767625
8.14550231185,-0.398357100341,1.16962326611,4.344648788
5.62992738281,2.55943002084,-2.27580491211,3.73322634362
1.86435245377,8.37721714201,-0.841233090327,6.63180389924
0.218777524729,2.29500426319,-1.92666126855,3.88038145486
-0.38679740431,-0.207208615633,-0.792089446764,5.14895901048
0.767627666646,-0.459421494452,-0.047517624982,5.43753656611
2.76205273761,-1.46163437328,-0.792945803201,1.73611412173
1.65647780856,4.4261527479,2.16162601858,6.38469167735
-0.419097120481,1.51393986907,1.01619784036,4.70326923297
-4.25467204952,-4.01827300975,-0.309230337854,-1.64815321141
-4.14024697857,-2.56048588857,-0.0846585160725,0.450424344213
-2.40582190761,-1.47269876739,-1.19008669429,-0.790998100165
-1.33139683665,1.12508835378,-2.40551487251,-0.752420544544
-0.296971765689,-2.18712452504,-3.69094305073,-4.68384298892
-3.28254669473,-7.89933740386,-2.69637122895,-5.3452654333
-3.29812162378,-5.21155028268,1.40820059284,-5.47668787768
2.85630344718,-1.8937631615,-1.21722758538,-5.07811032206
4.88072851813,-1.34597604033,-1.4126557636,-1.66953276643
2.51515358909,0.111811080853,1.68191605818,-0.930955210812
5.40957866004,-4.72040179797,0.106487879963,-3.24237765519
5.12400373101,-5.4526146768,-1.88894029825,-4.11380009957
6.55842880197,-1.32482755562,-0.364368476476,-1.70522254395
2.23285387293,-1.18704043444,-1.17979665469,-1.84664498833
-0.422721056115,-3.94925331327,-4.42522483291,-4.4680674327
-2.06829598516,-8.00146619209,-1.85065301113,-7.55948987708
-1.92387091421,-7.41367907091,-1.67608118935,-8.50091232146
0.470554156753,-3.51589194974,-2.81150936756,-5.78233476584
1.24497922771,3.38189517144,-1.58693754578,-1.15375721022
2.40940429866,4.03968229262,-1.602365724,-0.0251796545963
1.14382936963,-1.8725305862,-1.56779390222,-0.656602098974
2.06825444059,-2.66474346502,-1.04322208044,-0.0580245433539
5.60267951154,2.55304365615,-0.0486502586573,2.06055301227
5.7471045825,6.78083077733,4.14592156313,2.81913056789
1.13152965345,3.7786178985,2.88049338491,0.0177081235124
0.375954724412,-1.73359498032,0.345065206693,-0.503714320866
2.48037979537,-1.36580785914,1.66963702847,1.44486323476
6.96480486632,2.35197926204,1.66420885025,1.61344079038
7.27922993729,5.60976638321,-0.141219327965,2.392018346
7.89365500824,1.92755350439,-3.12664750619,0.950595901621
4.7980800792,-2.77465937443,-0.272075684403,0.439173457242
1.63250515016,0.223127746744,1.75249613738,1.07775101286
0.696930221115,6.61091486792,0.597067959163,5.43632856848
1.98135529208,7.3987019891,3.24163978094,7.30490612411
2.29578036303,5.24648911028,2.04621160273,1.87348367973
-2.92979456601,0.554276231458,1.61078342451,-0.0379387646499
-5.68536949505,1.50206335263,1.02535524629,0.160638790972
-3.18094442409,5.84985047382,0.359927068072,4.42921634659
-0.666519353137,9.28763759499,0.124498889854,6.09779390222
-0.412094282183,2.92542471617,1.02907071164,2.11637145784
0.442330788777,-4.39678816265,0.883642533416,-0.865050986542
0.556755859732,-2.21900104148,2.3982143552,1.79352656908
0.121180930691,0.848786079696,0.932786176982,2.7221041247
1.15560600164,0.636573200878,-1.02264200124,0.330681680322
-0.449968927394,-0.19563967795,0.131929820545,0.259259235945
-1.30554385643,-4.19785255678,-0.693498357672,1.47783679157
1.71888121453,-3.4900654356,-0.388926535888,1.76641434719
-0.0866937145183,0.29772168558,0.805645285891,-1.03500809719
0.18773135644,3.19550880676,-0.339782892326,1.86356945843
2.3421564274,1.43329592793,-1.94521107055,-1.17785298595
-2.23341850165,-1.45891695089,-1.19063924877,-1.91927543033
-1.6489934307,-2.9011298297,-0.266067426983,-1.5906978747
0.595431640264,-0.833342708531,-0.971495605201,-2.15212031908
-0.490143288771,3.20444441264,-0.736923783417,0.186457236539
3.11428178218,-0.0577684661766,-2.67235196164,0.31503479216
0.798706853144,-4.869981345,1.10221986015,-1.96638765222
1.6531319241,-3.47219422382,2.08679168193,-1.0578100966
3.38755699505,3.57559289736,0.761363503709,1.58076745903
0.191982066011,4.01338001853,-0.0540646745103,5.65934501465
-0.893592863031,-3.86883286029,-2.78949285273,2.74792257027
-0.79916779208,-6.94104573911,-0.344921030945,-0.803499874108
-2.62474272111,-5.75325861794,-0.850349209166,-0.814922318488
-4.76031765016,-2.85547149675,-0.325777387381,-2.29634476286
-3.2358925792,1.51231562442,1.0487944344,-0.617767207244
-9.55146750824,-1.8798972544,1.80336625618,-3.21918965162
-11.8670424373,-6.45211013322,1.09793807796,-4.320612096
-8.28261736633,-6.66432301205,0.502509899747,-4.50203454038
-6.35819229537,-4.30653589087,-0.472918278476,-3.23345698476
-4.87376722442,-0.87874876969,-0.00834645669238,-0.804879429135
-5.68934215346,-3.19096164852,-0.42377463491,-4.87630187351
-6.3549170825,-11.6931745273,-4.72920281313,-6.86772431789
-6.35049201154,-9.31538740616,-3.84463099135,-4.65914676227
-4.84606694058,-2.71760028499,-0.320059169564,-2.79056920665
-5.44164186963,0.360186836187,-0.465487347781,-0.311991651028
-5.94721679867,-3.65202604263,-1.060915526,-2.17341409541
-5.58279172771,-10.6442389215,-2.25634370422,-8.21483653978
-5.72836665675,-8.36645180028,-1.10177188244,-6.36625898416
-4.6039415858,-3.9986646791,-0.267200060654,-3.99768142854
-6.09951651483,-2.78087755793,-3.45262823887,-6.57910387292
-3.24509144388,-6.30309043674,-4.53805641709,-6.0005263173
-6.84066637292,-13.2253033156,-3.90348459531,-11.0819487617
-5.91624130197,-12.0475161944,-3.57891277353,-10.5233712061
-2.33181623101,-7.47972907321,-3.58434095175,-6.52479365043
-1.61739116005,-5.97194195204,-4.13976912996,-9.19621609481
-0.572966089094,-6.16415483086,-3.74519730818,-6.40763853919
-3.40854101814,-7.31636770968,-1.9206254864,-3.00906098357
-2.39411594717,-4.24858058851,-1.35605366462,-3.15048342795
0.410309123785,2.13920653267,0.178518157165,-0.251905872325
-0.435265805259,4.91699365385,3.00308997895,1.5066716833
-0.0908407343013,-1.46521922498,0.737661800726,-2.27475076108
-2.58641566335,-8.33743210379,-1.48776637749,-6.70617320546
-2.76199059239,-4.19964498262,-1.45319455571,-3.86759564984
0.692434478566,0.798142138556,-2.37862273393,-1.74901809422
2.43685954953,0.895929259736,-2.90405091214,-2.92044053859
0.751284620485,-0.586283619086,-2.22947909036,-2.52186298297
-1.81429030856,-4.93849649791,-1.99490726858,-4.06328542735
-0.459865237601,0.639290623272,-0.730335446799,1.04529212827
-0.525440166646,6.99707774445,0.984236374981,2.65386968389
5.08898490431,5.89486486562,-0.211191803235,2.22244723951
7.53340997527,2.9926519868,-0.716619981456,5.34102479514
3.47783504622,1.10043910798,1.09795184033,3.03960235076
5.18226011718,2.51822622915,2.10252366211,3.23817990638
5.41668518814,8.92601335033,2.32709548389,9.126757462
4.3911102591,11.4638004715,2.61166730567,10.0853350176
4.30553533006,7.51158759269,3.11623912746,4.47391257324
6.43996040102,5.88937471386,2.70081094924,5.09249012887
4.88438547197,9.20716183504,6.48538277102,10.0510676845
9.40881054293,14.5849489562,6.6599545928,11.2996452401
9.57323561388,17.5427360774,6.71452641458,12.2282227957
6.75766068485,14.0405231986,4.88909823636,12.3368003514
6.9420857558,9.91831031975,4.43367005814,10.765377907
-13.0289098837,-6.33761627905,3.49125,-13.6480813953
-12.257982169,-5.30923108174,0.677341289364,-13.1178114127
-11.1470544543,-4.32084588444,0.563432578736,-13.0875414301
-9.0061267396,-4.36246068712,3.0695238681,-12.6272714475
-8.39519902489,-6.79407548982,3.71561515747,-9.98700146493
-6.54427131019,-2.97569029251,3.78170644684,-6.17673148233
-6.67334359548,-0.467305095211,2.34779773622,-9.62646149973
-6.52241588078,1.0310801021,2.26388902559,-8.22619151712
-9.64148816607,-2.34053470059,1.91998031496,-7.08592153452
-9.36056045137,-9.85214950328,0.226071604327,-13.7356515519
-6.97963273667,-7.53376430598,-0.627837106305,-10.5953815693
-4.58870502196,-1.67537910866,0.758254183067,-4.6051115867
-4.26777730726,0.99300608864,2.41434547244,-3.8348416041
-1.23684959255,-1.19860871405,0.800436761805,-5.2745716215
-1.91592187785,-7.68022351674,0.266528051179,-8.11430163889
-2.46499416314,-5.31183831943,0.972619340548,-8.52403165629
1.07593355155,1.92654687788,2.80871062992,-4.57376167369
0.33686126626,4.35493207518,2.54480191928,1.11650830892
2.59778898097,-0.186682727508,0.570893208656,0.88677829152
1.53871669567,-5.1982975302,0.816984498029,0.367048274125
3.27964441037,-4.5699123329,3.6330757874,2.10731825673
5.64057212508,-0.671527135586,3.53916707677,3.56758823933
5.04149983978,0.106858061721,2.22525836614,3.58785822194
7.65242755449,-1.63475674097,2.42134965551,5.16812820454
7.41335526919,-5.58637154366,0.857440944877,0.328398187145
3.43428298389,-1.96798634635,0.293532234249,1.10866816975
2.8852106986,4.07039885096,1.25962352362,4.04893815235
4.5261384133,5.67878404826,1.67571481299,3.97920813496
5.63706612801,3.33716924557,0.291806102359,4.36947811756
6.76799384272,1.30555444288,-1.09210260827,6.53974810016
8.07892155741,4.03393964019,0.493988681101,9.41001808277
8.77984927212,8.61232483749,1.77007997047,10.3902880654
9.80077698682,9.1507100348,0.266171259838,9.42055804798
7.53170470153,7.76909523211,0.0622625492106,9.93082803058
5.40263241623,3.23748042942,-0.181646161422,9.36109801318
8.20356013094,3.18586562673,-0.42555487205,8.10136799579
6.87448784563,7.43425082403,0.780536417318,8.72163797839
5.90541556034,9.15263602135,0.30662770669,7.621907961
10.326343275,5.56102121865,-1.83728100394,8.9121779436
7.78727098975,4.43940641596,-2.09118971457,10.3524479262
8.42819870446,8.46779161327,2.4749015748,9.97271790881
6.95912641916,12.6261768106,4.10099286417,9.54298789141
4.32005413387,11.3345620079,1.14708415354,7.03325787401
3.12098184857,3.57294720519,-1.50682455709,0.803527856619
-0.358090436726,-0.398667597503,-2.45073326772,2.20379783922
2.52283727797,-1.27028240019,-2.98464197835,2.67406782183
5.57376499268,1.97810279712,-1.59855068898,2.66433780443
7.75469270739,5.93648799442,-2.74245939961,5.36460778703
4.90562042209,1.93487319173,-4.19636811024,2.47487776964
2.7065481368,-1.59674161096,-4.53027682087,0.695147752243
6.02747585149,1.75164358634,-2.12418553149,6.41541773485
5.6584035662,6.83002878365,-0.128094242129,9.31568771745
4.97933128091,7.29841398096,-1.63200295276,6.75595770005
4.34025899561,4.41679917827,-2.23591166339,6.46622768266
1.12118671031,-0.424815624421,-1.78982037402,5.29649766526
3.20211442502,2.38356957288,-1.79372908465,4.83676764786
3.55304213972,5.4019547702,-1.07763779528,6.79703763047
3.81396985443,2.17033996751,-3.17154650591,3.16730761307
0.0248975691284,-4.42127483519,-5.92545521654,-2.78242240432
-3.62417471617,-5.47288963788,-2.81936392717,-0.602152421719
0.346752998536,-4.46450444058,0.686727362201,0.828117560884
2.27768071325,1.01388075673,1.71281865157,2.89838754349
1.68860842795,3.92226595405,-0.231090059056,2.57865752609
-0.980463857355,-0.149348848652,1.26500123031,1.5889275087
-2.21953614265,-5.76096365134,1.29109251968,-2.3308025087
-3.48860842794,-4.44257845403,-0.0828161909449,-2.7605325261
-1.16768071324,0.835806743271,0.143275098424,0.139737456508
-0.816752998529,1.01419194059,-1.33063361221,-1.78999256089
-1.81582528383,-3.31742286211,-3.38454232283,-2.73972257828
-0.884897569122,-4.9490376648,-0.778451033464,-2.60945259568
-6.25396985442,-2.96065246749,1.14764025591,-0.899182613077
-2.91304213972,3.83773272981,1.25373154528,4.06108736953
5.22788557499,8.86611792712,3.50982283464,12.7013573521
1.30881328969,2.99450312444,5.50591412402,10.5916273347
-4.4702589956,-0.117111678264,1.57200541339,3.55189731734
-4.7393312809,0.921273519045,-1.27190329725,2.85216729994
-3.8384035662,3.17965871636,-1.07581200787,0.542437282547
0.402524148507,5.78804391366,-0.829720718502,6.50270726515
-1.57654813679,-1.42357088903,-4.04362942913,0.922977247756
-5.69562042208,-6.59518569172,-5.63753813976,-2.34675276964
-2.46469270738,-2.74680049441,-1.57144685039,2.74351721296
-0.593764992671,1.9115847029,0.794644438975,5.77378719557
-3.69283727797,2.9799699002,-0.769264271654,2.91405717817
-3.21190956327,-4.59164490249,-2.44317298228,-0.295672839226
-3.71098184856,-9.22325970518,-3.67708169291,-1.68540285662
-4.52005413386,-7.23487450787,-3.34099040354,-4.39513287402
-7.92912641916,-0.586489310561,-2.04489911417,-0.224862891413
-10.5381987045,-1.61810411326,-6.1088078248,-1.48459290881
-14.3672709897,-7.89971891595,-6.42271653543,-9.33432292621
-14.016343275,-9.01133371864,-6.33662524606,-7.3340529436
-10.3854155603,-6.44294852133,-6.81053395669,-6.263782961
-13.1444878456,-7.15456332402,-11.9244426673,-9.6935129784
-6.82356013094,-0.896178126713,-5.66835137795,-3.90324299579
-2.92263241623,-1.56779292941,-4.57226008858,-2.84297301319
-6.24170470152,-7.5294077321,-6.11616879921,-4.79270303058
-3.48077698681,-6.4510225348,-5.47007750984,-4.95243304798
-3.77984927212,-3.32263733749,-4.28398622047,-1.85216306538
-5.15892155741,-4.91425214017,-6.6578949311,-7.25189308277
-5.85799384271,-7.12586694287,-6.10180364173,-7.23162310017
-5.577066128,-8.86748174556,-5.78571235236,-5.58135311756
-4.6961384133,-5.15909654825,-5.62962106299,-4.14108313496
1.66478930141,2.70928864906,-1.72352977362,1.28918684764
3.95571701611,5.17767384637,0.962561515753,3.35945683025
1.35664473081,0.346059043666,-0.491347194878,-0.140273187149
0.297572445517,-4.99555575902,-0.76525590551,-3.21000320455
4.34850016022,-2.28717056171,-0.919164616142,-3.11973322194
1.99942787493,1.56121463559,-0.493073326768,-2.47946323934
5.61035558963,2.3595998329,-1.5269820374,-1.38919325673
3.23128330434,-0.832014969783,-1.15089074803,-2.98892327413
3.35221101904,-1.27362977248,-0.00479945865663,-1.53865329153
6.14313873374,3.26475542483,4.24129183071,2.88161669108
8.94406644844,4.31314062213,2.87738312008,0.281886673683
1.91499416315,0.0215258194439,-2.11652559055,-5.73784334371
8.92592187785,3.39991101676,3.66956569882,0.312426638891
8.40684959256,-1.94170378595,5.63565698819,-5.0873033785
3.69777730726,-2.11331858864,5.68174827756,-7.1470333959
2.09870502196,0.0750666086751,4.00783956693,-5.7967634133
-1.44036726333,2.24345180598,4.2739308563,-4.67649343069
-2.38943954863,-0.25816299671,4.77002214567,-5.62622344809
-1.12851183392,0.190222200603,4.13611343504,-2.95595346549
4.07241588079,4.76860739791,7.44220472441,5.11431651712
2.88334359549,6.60699259522,12.3382960138,6.19458649972
-6.42572868981,2.65537779252,7.22438730315,-5.83514351767
-1.36480097511,1.40376298983,5.34047859252,-4.11487353507
-1.7738732604,-2.05785181286,6.41656988189,0.185396447532
-1.0729455457,0.730533384449,5.98266117126,1.34566643014
3.72798216901,5.13891858175,6.85875246064,5.91593641274
4.16890988372,6.12730377907,6.20484375001,6.85620639534
-0.493684593013,-9.63934956395,-1.87382267442,-6.75398255814
-3.56685368407,-14.2002431732,-1.30978117561,-10.63387801
-2.88002277512,-11.1611367824,0.784260323198,-10.7237734618
0.286808133824,-7.12203039163,-0.0116981779938,-9.55366891366
2.71363904277,-6.91292400086,-0.117656679184,-9.2235643655
2.42046995171,-7.76381761009,-1.07361518037,-6.13345981734
-0.362699139339,-10.5147112193,-1.68957368156,-6.13335526918
-2.2058682304,-11.0456048285,-2.01553218275,-10.013250721
0.320962678554,-6.15649843778,-1.94149068394,-8.89314617286
0.777793587491,-3.98739204701,-2.12744918513,-9.5630416247
0.0346244964385,-4.18828565623,0.556592313678,-8.73293707654
-0.23854459462,-5.97917926547,2.16063381249,-6.13283252838
-0.871713685665,-1.8200728747,4.7346753113,-1.90272798022
3.79511722327,3.94903351607,3.91871681011,1.89737656794
10.3319481322,6.80813990685,5.44275830892,4.3574811161
12.0087790412,5.95724629761,4.42679980773,10.9975856643
4.10560995011,1.06635268839,6.96084130654,8.69769021242
-2.71755914095,-3.22454092084,4.02488280534,-8.33220523942
-2.920728232,-1.63543453007,-0.641075695843,-7.81210069126
-3.73389732305,2.79367186069,-0.117034197036,0.148003856895
-5.93706641411,-0.987221748524,0.807007301773,0.868108405055
-7.10023550516,-3.95811535776,1.51104880058,-1.83178704679
-2.19340459622,-2.66900896699,-0.134909700606,-1.67168249863
-1.12657368727,2.61009742379,-1.6708682018,-0.511577950465
-5.79974277833,-1.05079618545,-1.99682670299,-3.14147340231
-5.43291186939,-7.36168979468,-2.93278520418,-6.52136885415
