-31.5232957849,-31.3750436046,-3.16907340117,-32.0867005814
-31.1404978198,-30.4896492172,-1.27161998147,-32.019593338
-31.2176998546,-28.3842548297,-1.20416656176,-29.2424860946
-29.2149018895,-26.7988604422,-1.30671314206,-30.3653788512
-23.1621039244,-21.5134660547,-1.10925972235,-26.6482716078
-24.0593059593,-22.1580716673,-4.66180630265,-22.7611643644
-25.0065079942,-21.1826772798,-4.42435288295,-21.514057121
-28.1437100291,-18.1672828923,-2.72689946324,-22.4469498775
-22.2009120639,-10.3618885048,0.97055395646,-16.3898426341
-24.9781140988,-13.9664941174,-1.82199262384,-15.6527353907
-19.9553161337,-23.2910997299,-9.34453920413,-22.4956281473
-16.5625181686,-22.5057053424,-9.11708578443,-19.6285209039
-9.77972020348,-20.8803109549,-10.6696323647,-19.5414136605
-8.53692223836,-21.8649165675,-12.662178945,-19.1543064171
-10.5941242732,-25.37952218,-13.0247255253,-22.1771991737
-9.64132630813,-22.4541277925,-12.8972721056,-22.7600919303
-9.57852834301,-18.158733405,-12.3898186859,-19.1129846869
-8.10573037789,-14.0733390176,-9.75236526621,-12.2258774435
-6.66293241278,-5.2479446301,-6.04491184651,-2.49877020006
-4.23013444767,-7.77255024263,-4.2474584268,-2.90166295665
-7.16733648255,-4.17715585515,-2.3300050071,-2.07455571325
-0.664538517434,-4.63176146768,-5.0325515874,-4.93744846984
1.11825944768,-2.1263670802,-5.41509816769,-2.50034122643
0.351057412801,2.44902730727,-2.67764474799,1.96676601698
0.363855377916,-0.925578305252,-3.44019132829,2.39387326039
-2.61334665697,2.42981608222,-3.04273790858,2.39098050379
-3.56054869185,0.255210469697,-3.85528448888,3.1980877472
-2.48775072673,-1.57939514283,-4.25783106918,1.25519499061
-4.42495276162,-0.864000755351,-2.77037764947,-0.687697765985
-3.0821547965,-1.93860636788,-3.42292422977,-2.07059052258
0.170643168614,1.2567880196,-3.44547081007,-1.47348327917
3.34344113373,-2.65781759293,-5.10801739036,-3.79637603576
-0.873760901155,1.64757679454,-5.25056397066,-1.88926879235
0.509037063963,6.36297118202,-3.77311055096,2.19783845106
4.30183502908,5.6483655695,-1.54565713125,3.45494569447
1.59463299419,4.93375995697,-0.458203711549,3.78205293787
-5.12256904069,6.95915434445,1.97924970816,3.75916018128
-2.19977107557,7.22454873192,0.536703127858,3.04626742469
2.60302688954,7.77994311939,1.09415654756,3.92337466809
4.85582485466,13.7753375069,3.17160996726,11.4504819115
4.97862281977,16.8507318943,1.90906338697,14.4275891549
8.04142078489,21.2361262818,4.34651680667,15.5646963983
16.21421875,20.2415206693,4.58397022637,14.9218036417
17.1670167151,29.7869150568,7.75142364608,23.7089108851
12.4698146802,32.9323094442,11.3888770658,29.7860181285
17.8926126454,19.6977038317,4.74633048548,18.853125372
23.2254106105,15.2330982192,3.58378390519,17.0502326154
32.8382085756,18.4884926067,6.06123732489,24.6273398588
30.8810065407,17.5538869941,5.3186907446,20.1144471022
25.9138045058,18.5292813816,7.6561441643,20.8515543456
22.8966024709,17.4546757691,9.753597584,17.588661589
23.3794004361,18.3200701566,9.61105100371,16.6057688324
21.3621984012,18.415464544,9.60850442341,16.7328760758
21.8649963663,19.8208589315,7.14595784311,18.2799833192
22.1777943314,19.216253319,8.46341126282,19.2870905626
19.1305922965,21.0916477065,8.23086468252,20.494197806
20.8433902616,19.6970420939,6.85831810222,19.4213050494
16.2561882268,20.9224364814,6.14577152193,16.3784122928
16.6489861919,18.2678308689,7.10322494163,16.6255195363
18.591784157,16.9232252564,8.66067836134,16.7826267797
16.6645821221,18.7986196438,8.31813178104,18.7297340231
17.1073800872,17.2540140313,9.09558520074,16.0468412665
16.0201780523,18.1694084188,10.0530386204,15.8239485099
13.4729760174,21.0648028063,9.78049204015,16.6510557533
12.1657739826,19.3001971937,7.40794545985,15.3981629967
11.0185719477,11.8355915812,6.86539887955,9.52527024011
13.6313699128,19.6109859687,9.47285229926,14.9123774835
17.2641678779,16.1163803562,7.99030571896,14.7094847269
21.196965843,14.5517747436,8.65775913866,15.8565919703
17.0797638081,11.3571691311,6.59521255837,15.8536992137
10.6525617733,10.7225635186,6.50266597807,17.0608064571
10.1153597384,11.2779579061,7.46011939778,15.1379137006
10.5981577035,12.1733522935,7.02757281748,12.305020944
9.67095566861,13.828746681,6.17502623718,13.8021281874
7.68375363372,9.84414106848,5.83247965688,13.1292354308
10.4265515988,5.92953545596,4.14993307659,11.2063426742
11.199349564,6.37492984343,4.43738649629,12.3934499176
8.02214752907,7.31032423091,7.024839916,12.350557161
16.8849454942,10.9357186184,7.6522933357,16.1976644044
12.2077434593,10.0311130059,8.2897467554,17.6247716478
13.9005414244,7.70650739333,5.62720017511,17.3118788912
18.6133393895,5.33190178081,3.43465359481,18.5589861346
15.2961373546,6.47729616828,3.02210701451,15.566093378
13.3689353198,10.4726905558,2.85956043422,15.1932006215
11.2417332849,-3.61191505677,0.397013853919,5.51030786486
5.84453125,-2.45652066929,0.414467273622,2.96741510827
8.16732921512,-7.03112628182,-1.50807930667,2.22452235167
6.10012718023,-5.02573189434,1.81937411303,3.50162959508
2.05292514535,-1.90033750687,3.10682753273,3.38873683849
1.26572311046,2.43505688061,4.82428095244,3.3658440819
0.788521075581,-0.409548731919,4.48173437214,5.04295132531
-2.2786809593,-6.37415434444,0.859187791844,-0.899941431286
1.60411700581,-0.698759956971,0.846641211547,0.707165812124
2.51691497093,1.26663443051,1.09409463125,0.394273055532
2.47971293604,-9.73797118202,-3.69845194905,-2.14861970106
1.33251090116,-5.00257679455,-2.60099852934,-0.721512457654
0.215308866278,-1.04718240707,-2.72354510964,0.465594785754
-4.19189316861,-0.381788019597,-2.36609168994,-5.07729797084
-5.71909520349,-10.0763936321,-5.74863827023,-12.7001907274
-9.54629723838,-11.0009992446,-2.58118485053,-8.85308348402
-6.31349927326,-2.44560485717,-1.49373143083,-4.00597624061
1.74929869186,-1.1902104697,-1.47627801112,0.331131002793
5.65209665697,3.52518391778,0.401175408582,6.6382382462
7.61489462209,6.40057830525,1.10862882829,6.23534548961
0.837692587207,6.19597269273,-0.933917752012,2.64245273302
-7.90950944768,1.3513670802,-2.96646433231,0.739559976424
-9.56671148256,0.156761467675,-3.8890109126,-4.35333278017
-10.9139135174,-1.47784414485,-4.8515574929,-6.70622553676
-10.6511155523,0.807550242625,-4.0541040732,-6.36911829335
-11.3583175872,-9.5270553699,-5.55665065349,-12.0920110499
-13.8855196221,-3.24166098242,-2.67919723379,-13.0949038065
-14.782721657,-12.1262665949,-5.95174381409,-15.9977965631
-12.8499236919,-11.6108722075,-6.91429039438,-14.9506893197
-10.9971257267,-3.32547782,-3.72683697468,-8.84358207631
-10.5343277616,-3.21008343252,0.590616445023,-7.1864748329
-12.0415297965,-10.6146890451,-3.35193013527,-10.1893675895
-10.5287318314,-18.1292946576,-7.22447671557,-14.4122603461
-9.27593386628,-13.2539002701,-4.34702329587,-11.8351531027
-14.2731359012,-6.48850588263,1.53043012384,-9.55804585927
-21.0303379361,-16.8831114952,-3.35211645646,-18.5409386159
-20.1175399709,-10.8477171077,-2.37466303676,-19.1238313725
-18.8247420058,-14.0723227202,-4.65720961705,-22.096724129
-22.1619440407,-24.4169283327,-12.1297561973,-28.4696168856
-23.8491460756,-28.8515339453,-15.0323027776,-29.4725096422
-24.9463481105,-29.3361395578,-12.7148493579,-29.8454023988
-23.8135501454,-25.7007451703,-10.8673959382,-26.1882951554
-23.3707521802,-23.4453507828,-7.73994251854,-27.171187912
-23.4879542151,-20.1399563954,-4.70248909883,-24.4640806686
-12.9930159884,10.9952361919,0.118190406976,1.55926598837
-14.5716286795,5.4415968916,-4.97450747345,-3.94000517877
-10.6802413706,-0.622042408662,-7.06720535387,-3.51927634591
-13.2188540617,-16.0056817089,-10.8699032343,-14.2785475131
-15.5974667529,-14.9093210092,-9.97260111472,-15.9978186802
-18.056079444,-22.8529603095,-11.3752989951,-13.0270898473
-16.1046921351,-13.9865996097,-7.36799687558,-10.3063610145
-14.9533048263,-11.06023891,-5.130694756,-6.7356321816
-13.3619175174,7.12612178974,-0.123392636422,0.595096651254
-14.1405302085,-10.1775175105,-7.71609051685,-8.25417451589
-15.8491428996,-7.12115681079,-5.52878839727,-6.13344568303
-17.2977555908,-5.61479611105,-3.3114862777,-5.51271685017
-13.1363682819,0.971564588681,0.0658158418773,-1.5319880173
-15.564980973,-5.13207471158,-7.12688203855,-7.04125918444
-13.3435936642,-8.44571401185,-6.18957991897,-9.41053035158
-9.87220635529,7.19064668788,2.3177222006,-5.40980151873
-14.4708190464,-26.3629926124,-7.16497567982,-17.0190726859
-7.53943173754,-3.18663191265,-3.57767356025,0.501656146997
-4.91804442867,-10.2302712129,-4.65037144067,-0.327615020142
-9.2166571198,-5.27391051318,-4.0630693211,-6.27688618728
-7.04526981093,7.70245018656,-2.56576720152,-7.59615735442
-8.24388250206,-10.6811891137,-4.28846508195,-2.61542852156
-4.41249519318,-8.06482841397,-6.43116296237,-1.5446996887
-11.5811078843,-14.3084677142,-1.1238608428,-6.88397085584
-8.91972057544,7.18789298549,4.01344127678,1.31675797702
-5.44833326657,6.19425368523,0.690743396355,-3.07251319012
-5.5269459577,-2.25938561504,-0.221954484068,-8.59178435726
-2.32555864882,-4.5630249153,4.56534763551,-8.1310555244
7.49582866005,10.4733357844,1.75264975508,4.22967330846
5.30721596892,13.6596964842,2.35995187466,8.36040214132
5.42860327779,-6.5239428161,-3.07274600577,0.42113097418
7.57999058667,15.9024178836,6.92455611381,11.081859807
6.35137789554,-4.93122141663,0.62185823338,-1.0974113601
9.51276520441,-6.6348607169,-5.01083964704,-0.296682527238
9.61415251328,-4.06850001716,-7.26353752747,3.78404630562
14.1755398222,0.507860682574,-2.40623540789,8.16477513848
14.426927131,1.30422138231,-1.03893328832,2.84550397134
12.8083144399,13.810582082,6.17836883126,12.2262328042
7.57970174877,20.2269427818,11.6856709508,18.3469616371
4.46108905764,34.3933034815,13.0329730704,20.1776904699
6.38247636651,9.94966418125,-0.779724810018,9.93841930278
5.18386367538,-3.68397511902,-3.95242269044,2.60914813564
3.67525098426,29.7423855807,13.5748794291,8.7498769685
-0.47336170687,-16.4812537196,-3.69781845129,-10.1393941986
3.168025602,-14.1448930198,-7.59051633171,0.651334634225
6.01941291087,-0.0885323200819,2.78678578786,3.26206346709
8.95080021974,-0.852171620349,-0.715912092566,-0.917207700055
9.85218752862,-7.38581092061,2.37139002701,5.92352113281
11.6735748375,4.47054977912,3.26869214658,2.76424996566
10.9849621464,-2.03308952114,-2.40400573384,2.60497879853
10.6563494552,-7.49672882141,3.29329638574,1.44570763139
9.8377367641,12.4996318783,10.5605985053,1.95643646425
8.43912407297,-5.40400742194,1.71790062489,-2.11283470289
5.96051138185,-20.9676467222,0.93520274446,-9.56210587003
10.2818986907,4.23871397753,7.13250486404,2.25862296283
7.09328599959,1.30507467726,6.72980698361,1.02935179569
6.62467330846,-9.208564623,-0.712890896813,-0.919919371448
9.65606061733,-4.54220392327,6.29441122276,1.58080946141
10.1274479262,27.1941567765,19.9717133423,11.5615382943
7.42883523508,-1.2894825238,2.53901546191,-0.0377328728719
11.040222544,-7.08312182407,0.556317581488,-0.217004040009
11.4016098528,16.3732388757,14.3936197011,7.53372479285
12.0129971617,17.5595995754,13.3209218206,17.4144536257
13.4743844706,18.2659602751,5.63822394021,19.3051824586
11.0857717794,2.23232097487,2.35552605979,9.42591129143
14.3071590883,22.2786816746,9.04282817936,14.3166401243
11.7685463972,24.7250423743,15.6901302989,16.3973689572
11.0399337061,18.8014030741,7.01743241851,16.88809779
9.79132101493,3.45776377381,2.54473453809,9.18882662287
13.3127083238,15.2141244735,13.7020366577,11.8095554557
11.4340956327,30.5204851733,20.0993387772,21.7002842886
9.45548294154,-6.23315412699,5.59664089682,2.36101312145
4.85687025042,0.133206572747,1.93394301639,-0.838258045686
7.02825755929,-4.57043272752,1.40124513597,-1.39752921283
14.7996448682,12.3459279722,1.31854725554,11.38319962
11.831032177,18.012288672,9.70584937512,10.8439284529
11.7724194859,-6.87135062831,4.34315149469,-8.06534271424
7.73380679477,11.0550100714,0.410453614266,-2.56461388139
6.84519410364,-7.27862922885,1.52775573384,-4.62388504852
8.50658141252,4.42773147089,0.865057853418,3.03684378434
7.01796872139,-11.5659078294,2.49235997299,-4.3224273828
7.17935603026,-4.36954712964,2.71966209257,-0.721698549944
10.6707433391,-13.7431864299,-6.68303578786,-4.88096971708
14.742130648,-3.53682573017,-2.16573366828,-0.800240884222
13.4535179569,-2.60046503044,6.11156845129,0.810487948638
9.54490526575,27.8158956693,1.45887057087,8.7412167815
12.0362925746,-15.017743631,-9.66382730956,-4.13805438564
11.8476798835,-7.74138293124,-0.546525189982,-3.75732555278
11.1590671924,40.4049777685,7.73077692959,15.5734032801
2.45045450124,-19.4386615318,-8.65192095083,-1.70586788706
6.54184181011,3.50769916797,-7.23461883126,10.0448609458
1.76322911898,-13.4359401323,-1.01731671168,-6.07441022134
2.93461642785,-5.39957943256,1.0799854079,0.00631861152215
1.46600373672,16.6067812672,13.9372875275,7.60704744438
7.1073910456,-0.646858033095,-3.82541035295,3.59777627724
5.85877835447,-4.08049733336,-5.34810823338,-1.3914948899
3.12016566334,5.01586336637,4.57919388619,0.979233942962
-2.34844702779,-2.52777593389,-0.553503994228,1.17996277582
4.16294028109,18.9785847658,7.13379812535,6.34069160868
0.594327589959,-0.475054534423,-1.01889975508,2.87142044154
1.75571489883,-19.2586938347,-11.9415976355,-8.5078507256
3.9571022077,-12.222333135,-6.64429551593,-4.71712189274
1.16848951657,1.65402756478,0.803006603646,5.43360694012
3.25987682544,10.6703882645,3.87030872322,10.214335773
1.85126413431,-13.4532510358,-2.4323891572,-3.78493539416
-0.307348556813,-3.57689033601,-2.45508703763,-7.00420656129
-4.43596124794,9.46947036372,-0.127784918053,-3.23347772843
-9.41457393907,-2.42416893655,-0.630482798477,-5.96274889557
-5.8331866302,10.8421917632,-0.253180678903,3.46797993729
-3.90179932132,-1.97144753708,-7.42587855933,-5.23129122985
-6.51041201245,2.78491316266,-6.03857643975,-1.92056239699
-6.96902470358,-5.88872613761,-3.84127432018,-5.65983356413
-5.06763739471,0.317634562125,3.4060277994,-1.90910473127
-6.93625008584,-11.8960047381,-5.88667008102,-5.05837589841
-9.61486277696,-7.46964403841,-4.34936796145,-11.3876470656
-12.4434754681,2.39671666133,-3.58206584187,-2.35691823269
-13.6920881592,-11.0169226389,-10.9147637223,-11.5061893998
-22.7607008504,-25.6605619392,-12.1374616027,-25.745460567
-30.4393135415,-19.6742012395,-7.69015948315,-23.3347317341
-25.4479262326,-15.0378405397,-11.8828573636,-12.2940029012
-16.9465389237,-2.90147984,-5.195555244,-0.903274068387
-18.5751516149,-6.17511914027,0.551746875577,-3.81254523553
-16.313764306,2.51124155947,-1.99095100485,-3.52181640267
-18.2923769971,-2.5623977408,2.02635111473,-2.76108756981
-16.5209896882,-1.25603704106,-1.5163467657,-3.44035873695
-12.1296023794,5.60032365867,-6.33904464612,-0.619629904086
-14.7882150705,-7.70331564159,-4.22174252655,-2.05890107122
-17.3268277616,-3.10695494186,-1.17444040697,2.05182776163
-13.9875036337,-3.00502180232,-9.6908502907,-22.4487172965
-7.91670879302,-5.18689399835,-12.6327611129,-20.7749099867
-5.36591395233,9.52123380563,-1.99467193509,-12.8911026769
-6.70511911165,-6.1606383904,-7.91658275728,-9.54729536716
-9.87432427096,-3.74251058643,-6.52849357948,-15.3634880574
-10.9635294303,-13.3543827825,-17.4104044017,-8.18968074758
-15.8927345896,-1.29625497848,-6.25231522386,-12.2458734378
-14.6819397489,-2.89812717451,-15.1942260461,-14.062066128
-9.4911449082,-38.4399993705,-13.3761368682,-14.3082588182
-10.4003500675,-7.58187156656,-5.08804769044,-4.70445150843
-15.4295552268,8.69625623741,-9.16995851264,-13.0906441986
-10.2387603861,-18.7056159586,-13.7718693348,-14.5568368889
-7.61796554545,3.78251184536,1.11621984298,-0.483029579067
-7.18717070476,-0.569360350666,-10.3056909792,-0.889222269281
-6.61637586407,1.46876745331,-8.97760180141,2.07458504051
-5.65558102338,-9.90310474272,-4.36951262361,-8.27160764971
-0.644786182696,13.0550230613,2.1985765542,5.62219966008
-2.22399134201,-5.64684913477,-2.04333426799,-2.67399303013
0.826803498683,-12.4287213308,-5.05524509019,-3.67018572034
-0.962401660632,-9.74059352682,-0.447155912381,-2.55637841056
1.07839318006,3.57753427715,-0.309066734573,-2.29257110077
2.24918802075,9.64566208112,-3.98097755677,-4.53876379098
11.2599828614,-5.4562101149,-6.92288837896,-0.764956481195
12.7007777021,-6.03808231093,1.95520079885,0.348850828595
18.1815725428,-3.63995450696,-3.89671002335,10.5826581384
17.7423673835,19.008173297,7.32137915446,12.3164654482
20.2231622242,26.636301101,10.2794683323,17.580272758
19.2039570649,-2.14557109504,-1.77244248993,7.41408006775
15.1447519056,4.60255670894,3.57564668788,5.63788737754
11.5055467463,4.99068451291,6.97373586568,6.63169468732
11.3063415869,11.5288123169,9.21182504349,14.7455019971
10.1971364276,19.6869401209,7.9699142213,11.5193093069
5.92793126832,29.7250679248,8.1680033991,13.7431166167
1.35872610901,-1.73680427119,0.706092576907,1.44692392647
