0.274069767449,-4.64318313952,-0.0468350290757,-6.49836482558
-0.812252935582,-3.3418547141,-0.993918581771,-7.92867970037
-4.50857563861,-9.48052628868,-3.75100213446,-13.8189945752
-6.21489834164,-10.2491978632,-3.57808568715,-12.66930945
-7.61122104467,-11.8878694378,-2.91516923984,-12.4496243248
0.732456252295,-7.6065410124,-2.94225279254,-9.73993919955
1.86613354927,0.854787413027,-1.56933634523,-0.0102540743446
3.10981084624,-1.08388416155,-3.05641989792,-1.52056894914
7.1934881432,-2.99255573612,-3.10350345061,-1.06088382393
13.3471654402,-2.89122731069,-2.6405870033,-0.471198698726
2.45084273714,-1.51989888527,-3.797670556,1.25848642648
7.42452003411,1.24142954015,-2.66475410869,2.22817155169
10.4381973311,-2.63724203442,-3.12183766138,-1.02214332311
16.481874628,-0.995913608993,-1.87892121407,2.3175418021
15.195551925,0.545414816432,0.73399523324,5.2972269273
11.809229222,3.59674324186,1.43691168055,6.65691205251
10.012906519,7.98807166729,1.67982812785,7.59659717772
9.02658381593,12.2894000927,1.20274457516,11.4062823029
7.9202611129,7.87072851813,0.815661022472,7.95596742813
-6.26606159013,2.25205694356,0.308577469783,4.23565255333
-4.30238429317,6.62338536898,1.38149391709,7.72533767854
-4.0687069962,11.4147137944,1.1644103644,9.25502280375
-6.76502969923,5.07604221984,-1.95267318829,6.83470792895
-8.07135240225,2.94737064526,0.140243259015,3.66439305416
1.33232489472,8.27869907069,4.56315970632,0.394078179364
-1.53399780832,19.6900274961,8.46607615363,14.3537633046
-3.22032051135,14.0613559215,3.48899260094,13.0834484298
1.10335678562,6.07268434696,-2.54809095175,3.48313355498
-5.54296591741,3.49401277239,1.33482549555,3.18281868019
-0.0792886204399,-0.694658802186,1.87774194286,1.13250380539
0.194388676529,7.62666962324,5.47065839017,4.5821889306
-2.0619340265,8.44799804867,6.98357483748,2.51187405581
5.41174327047,8.27932647409,4.71649128479,3.66155918101
1.73542056744,0.640654899518,4.1994077321,2.09124430622
-2.66090213559,-1.77801667506,2.58232417941,-1.25907056858
1.04277516138,2.85331175037,2.01524062671,0.59061455663
-3.12354754165,-2.74535982421,-2.78184292598,-2.83970031816
-2.05987024468,-5.45403139878,-6.27892647867,-4.98001519296
-4.99619294772,-8.64270297335,-6.10601003137,-7.23033006775
-3.46251565075,-1.68137454793,-1.57309358405,-0.270644942546
-6.35883835378,-2.4100461225,-3.44017713674,-4.28095981734
1.90483894319,3.42128230292,-2.30726068944,-1.05127469213
-0.121483759838,3.74261072835,-0.66434424213,-0.551589566928
2.84219353713,6.30393915377,0.938572205177,5.22809555828
5.1358708341,1.4852675792,-0.678511347513,2.10778068348
-1.94045186893,1.71659600463,-0.595594900202,1.35746580869
-2.90677457196,3.06792443005,-1.2326784529,4.2271509339
-3.79309727499,5.15925285548,1.22023799441,9.3368360591
-9.09941997802,5.3305812809,3.73315444172,6.72652118431
-11.7457426811,-0.228090293673,1.29607088903,1.57620630951
-9.40206538409,3.79323813176,2.91898733634,6.85589143472
1.29161191288,8.82456655718,3.26190378364,10.1055765599
2.97528920985,5.1058949826,1.04482023095,10.3252616851
-1.99103349317,4.02722340803,1.92773667826,8.56494681034
-3.92735619621,-3.72144816655,-1.20934687443,3.81463193554
-1.09367889924,0.249880258882,-2.28643042712,3.42431706075
-4.41000160227,-0.818791315691,-3.52351397981,0.924002185955
-4.5363243053,-2.56746289027,-3.89059753251,-1.36631268884
-5.88264700833,-6.62613446484,-3.1376810852,-2.11662756363
-2.89896971136,-6.66480603941,-1.42476463789,0.0430575615733
4.89470758561,-0.773477613988,0.398151809419,3.69274268678
1.25838488258,3.12785081143,0.971068256727,7.84242781199
0.26206217955,2.13917923686,0.913984704035,6.79211293719
1.26573947652,-4.42949233771,-0.143098848654,1.7117980624
2.00941677349,-8.74816391229,-1.14018240135,-3.3285168124
5.66309407046,-3.84683548686,0.172734045958,0.79116831281
2.30677136742,-0.595507061436,0.945650493268,2.48085343802
2.56044866439,1.45582136399,0.898566940577,3.36053856322
3.93412596136,-8.61285021059,0.771483387885,-1.67977631157
4.30780325833,-8.00152178516,1.05439983519,0.609908813633
2.6214805553,-10.2201933597,-1.2326837175,-0.77040606116
-1.67484214772,-11.6688649343,-4.58976727019,-6.19072093595
3.45883514924,-11.5375365089,-2.25685082288,-5.91103581075
-6.61748755379,-16.7662080835,-2.86393437557,-12.5913506855
-9.59381025682,-13.864879658,-2.00101792827,-10.2116655603
-1.14013295985,-9.8335512326,-1.96810148096,-5.19198043513
-5.83645566288,-4.65222280718,-1.10518503365,-2.30229530992
-0.622778365912,-3.17089438176,1.72773141366,-5.12261018472
-3.06910106894,-5.67956595633,6.04064786097,-8.58292505951
2.06457622803,-2.87823753091,6.18356430827,0.0567600656937
-7.261746475,-5.57690910548,-0.153519244417,-8.8935548091
-5.41806917803,-3.72558068005,-1.77060279711,-13.5838696839
-9.60439188106,-5.64425225462,-1.0176863498,-9.50418455869
-5.4407145841,-14.9029238292,-1.20476990249,-17.5844994335
-9.31703728712,-14.3515954038,-0.231853455181,-23.9648143083
-4.98335999016,-9.87026697835,1.75106299213,-18.6351291831
-4.68968269319,-5.45893855293,2.14397943943,-14.6454440579
-10.6360053962,-6.4976101275,1.24689588674,-18.7557589327
-3.36232809925,-8.09628170207,1.65981233405,-19.3260738075
-6.34865080228,-7.86495327665,1.00272878136,-15.8263886822
-7.76497350531,-8.12362485122,-1.55435477134,-18.316703557
-5.45129620834,-7.6822964258,-1.45143832402,-15.7370184318
-2.03761891137,-2.28096800037,0.171478123284,-9.58733330663
-2.0039416144,-8.63963957495,0.524394570595,-12.7276481814
-5.55026431743,-7.24831114952,2.9073110179,-11.8879630562
-11.8565870205,0.273017275904,4.55022746521,-7.22827793101
-6.84290972349,1.31434570133,1.95314391252,-1.4085928058
-5.57923242652,0.875674126757,1.58606035982,-1.6689076806
-3.95555512956,5.64700255218,5.10897680713,-0.809222555392
1.66812216742,4.72833097761,6.40189325444,2.26046256981
4.38179946438,9.93965940303,5.54480970175,5.65014769502
5.24547676135,13.0409878285,4.97772614906,8.46983282023
4.51915405832,13.0723162539,5.08064259637,10.6095179454
1.25283135529,9.19364467931,5.80355904367,10.2592030706
7.56650865226,8.26497310474,5.70647549098,8.54888819584
10.2601859492,10.8463015302,4.95939193829,9.69857332105
9.3538632462,14.4376299556,3.3223083856,12.0082584463
2.39754054317,9.97895838102,2.01522483291,7.90794357146
5.65121784014,7.02028680644,1.82814128022,4.20762869667
2.84489513711,1.42161523187,-0.118942272478,2.87731382187
2.76857243408,4.33294365729,-0.0660258251664,4.78699894708
-0.257750268953,10.4742720827,-0.583109377858,6.06668407229
6.94592702802,1.96560050814,-3.63019293055,1.29636919749
1.68960432498,0.296928933567,-4.26727648324,2.2660543227
3.37328162195,2.74825735899,-0.994360035933,6.5457394479
8.95695891892,6.89958578442,-1.04144358862,6.21542457311
9.79063621589,7.20091420984,-1.80852714132,6.04510969832
-2.08568648714,8.41224263527,-0.365610694011,7.19479482352
4.11799080983,4.71357106069,-1.3626942467,5.53447994873
1.7216681068,-3.11510051388,-2.97977779939,4.62416507393
3.40534540377,1.80622791154,-4.23686135208,7.72385019914
11.4690227007,4.97755633697,-2.94394490477,9.74353532434
5.22269999771,-1.3211152376,-2.38102845747,1.61322044955
-1.11362270532,-9.23978681218,-5.19811201016,-3.51709442524
-3.75994540835,-9.71845838675,-5.20519556285,0.292590699964
3.40373188861,-1.99712996132,-3.96227911554,6.60227582517
3.32740918559,4.3141984641,-4.55936266823,8.56196095038
1.15108648255,0.705526889524,-9.14644622093,3.56164607558
-3.83829578488,-5.11190770347,-4.72382630815,0.685134447675
-2.8133792174,-4.76807106641,-4.28096708479,0.166748964247
-4.54846264992,2.27576557066,-3.46810786144,3.78836348082
-2.76354608245,3.30960220772,-4.03524863808,6.40997799739
0.371370485034,1.19343884478,-3.67238941472,4.01159251396
-2.06371294749,0.43727548184,-1.06953019137,3.05320703054
-6.90879638001,-7.9788878811,-5.05667096801,-0.295178452892
2.61612018747,-1.51505124403,-5.20381174465,3.74643606368
3.00103675494,3.17878539303,-4.30095252129,6.85805058025
-4.68404667758,6.56262203009,-1.19809329794,6.33966509682
2.1308698899,4.91645866715,0.644765925419,6.0712796134
6.44578645738,-0.729704695786,-1.87237485123,1.87289412997
8.53070302486,6.24413194128,-0.229515627871,4.30450864654
3.21561959234,2.98796857834,-1.35665640451,1.01612316311
2.79053615982,1.54180521541,-1.86379718115,2.04773767968
2.19545272729,-1.28435814753,-1.5209379578,-0.300647803744
-0.749630705228,-6.80052151047,-2.70807873444,-4.02903328717
5.15528586225,1.25331512659,2.41478048891,1.4625812294
3.50020242973,5.07715176365,3.60763971227,4.59419574597
4.93511899721,4.70098840072,2.02049893563,1.88581026254
-0.899964435313,-4.63517496222,-1.10664184102,-1.19257522088
-3.97504786783,-5.94133832516,0.0662173823403,-2.62096070431
-1.02013130036,-1.51750168809,1.70907660569,-3.80934618774
-5.96521473287,2.82633494897,0.781935829054,-1.86773167117
-3.0302981654,0.600171586033,0.144795052409,-1.7961171546
0.754618402083,-2.09599177691,1.78765427577,-0.304502638023
0.259534969555,-2.58215513985,2.29051349912,1.34711187855
1.13445153704,3.59168149722,1.94337272248,4.07872639512
2.78936810451,6.77551813428,1.77623194583,7.25034091169
0.384284671993,-0.930645228658,-0.200908830804,1.17195542826
-10.5407987605,-4.38680859159,0.281950392549,-1.99643005516
-4.48588219305,-6.28297195453,-0.375190384093,-3.56481553859
-4.55096562557,-1.84913531747,0.0976688392657,-5.04320102202
-2.01604905809,5.79470131959,1.48052806262,4.38841349455
-1.97113249061,0.868537956656,0.413387285975,1.66002801112
-1.13621592314,-4.00762540628,-2.27375349067,-2.9883574723
4.55870064434,-2.34378876922,-0.770894267309,-1.06674295573
0.233617211823,0.900047867843,-0.178035043955,1.57487156084
0.788533779301,2.00388450491,-0.855175820594,0.206486077413
2.49345034678,3.12772114197,-1.23231659724,0.658100593985
0.348366914259,-2.56844222097,-2.41945737389,-2.07028488944
2.30328348173,-2.82460558391,-2.30659815052,-3.67867037287
3.57820004921,-1.30076894684,-0.953738927168,-1.0670558563
5.05311661669,4.63306769022,-0.000879703813553,2.75455866027
10.9780331842,-3.05309567272,-1.23802048045,0.116173176845
4.90294975165,-2.66925903565,2.1248387429,-1.35221230658
8.41786631913,-1.36542239859,2.02769796626,-1.89059779001
9.58278288661,5.76841423847,2.12055718961,2.51101672656
10.9076994541,9.93225087553,4.88341641297,4.88263124313
-0.787383978437,3.99608751259,4.80627563633,3.87424575971
-7.06246741096,-1.74007585034,4.14913485969,-2.20413972372
-10.4275508435,-7.19623921328,2.95199408304,-8.89252520715
-13.242634276,-4.68240257622,1.8848533064,-7.19091069058
-7.78771770852,2.14143406084,3.14771252976,-1.77929617401
-3.92280114105,-6.41472930209,0.390571753112,-7.21768165743
-4.42788457357,-11.080892665,-2.30656902353,-10.3660671409
-3.53296800609,-9.79705602797,-2.11370980017,-6.09445262429
-6.25805143861,-1.8532193909,0.719149423181,-2.96283810772
-2.72313487113,1.17061724616,1.46200864654,-1.87122359115
-1.04821830365,1.37445388322,2.19486786989,-1.08960907457
-7.16330173617,-4.38170947972,0.0977270932526,-4.647994558
-3.3883851687,-0.197872842658,-0.489413683394,-3.88638004143
4.06653139878,1.07596379441,-1.99655446003,-2.23476552486
6.08144796626,5.84980043147,0.226304763321,1.58684899171
-1.49363546626,4.55363706853,2.03916398668,-1.13153649171
-0.908718898783,8.09747370559,3.80202321004,-0.439921975142
-1.98380233131,0.28131034266,1.59488243339,-4.48830745857
6.78111423618,3.27514697972,2.96774165675,-1.646692942
6.94603080365,4.46898361678,2.7106008801,1.92492157457
1.16094737113,4.21282025384,3.10346010346,4.94653609115
0.51586393861,1.75665689091,2.98631932682,1.29815060772
0.180780506089,1.38049352797,2.29917855017,-0.380234875709
3.91569707357,-0.755669834965,0.952037773532,0.901379640863
-0.709386358954,3.4081668021,4.13489699689,-0.0170058425656
8.88553020852,1.76200343916,1.23775622024,-0.0853913259934
0.590446776001,-3.46415992378,-0.3793845564,-4.11377680942
-2.30463665652,-5.76032328672,-0.706525333044,-7.26216229285
2.52027991096,-7.20648664965,-1.67366610969,-7.75054777628
0.225196478437,0.597349987409,-1.13080688633,-2.05893325971
-3.09988695409,0.0211866244717,0.092052337026,-2.47731874313
-1.87497038661,-1.69497673846,1.66491156038,-4.33570422656
-7.72005381913,0.168859898597,2.49777078374,-3.59408970999
-5.95513725165,1.69269653566,4.2806300071,1.09752480658
5.75977931583,7.06653317272,3.90348923045,2.81913932316
-0.205304116695,5.48036980978,2.55634845381,2.53075383973
4.59961245079,-0.205793553156,1.78920767717,3.9323683563
6.53452901826,-2.52195691609,2.04206690052,2.23398287287
0.159445585741,-3.96812027903,-0.0450738761174,-3.57440261056
-0.235637846778,-2.73428364197,-0.212214652762,-5.58278809398
-1.3707212793,-5.32044700491,-1.51935542941,-8.38117357741
-3.82580471182,-4.80661036784,0.0135037939508,-8.89955906084
-3.42088814434,-8.53277373078,0.686363017307,-6.09794454427
-1.74597157686,3.19106290628,4.91922224066,0.763669972303
5.22894499062,6.21489954335,5.38208146402,1.36528448888
-0.286138441905,-0.62126381959,3.38494068738,-0.563100994552
2.84877812557,-0.817427182526,2.67779991073,-2.95148647798
5.37369469305,1.78640945453,1.93065913409,-0.629871961409
3.09861126052,1.72024609159,2.03351835745,1.41174255516
9.31352782801,6.57408272866,2.6463775808,2.90335707174
4.24844439548,6.58791936572,1.55923680416,3.44497158831
5.85336096296,2.61175600279,2.08209602752,4.31658610488
-0.351722469561,0.315592639847,1.64495525087,-0.691799378548
1.17319409792,7.49942927691,2.52781447423,2.78981513802
-0.101889334601,5.51326591397,0.510673697587,1.9614296546
-0.546972767122,2.20710255103,-0.236467079056,-0.916955828832
-10.3520561996,-3.8590608119,-2.5536078557,-3.57534131226
-3.57713963217,-5.17522417484,-1.92074863234,-6.50372679569
3.90777693531,-2.91138753778,-2.63788940899,-2.62211227912
-9.69730649721,-2.63755090072,-3.50503018563,-3.42049776254
-3.83238992973,-3.90371426365,-2.37217096227,-3.26888324597
-9.01747336225,-6.77987762659,-2.40931173892,-5.0572687294
-6.11255679477,-4.49604098953,-0.94645251556,-0.785654212827
-1.72764022729,3.17779564753,-1.4735932922,5.00596030374
-4.20272365982,3.4516322846,-3.40073406885,3.70757482032
2.68219290766,4.21546892166,-2.60787484549,1.46918933689
-3.90289052486,-9.30069444128,-4.52501562213,-2.72919614654
0.702026042618,-5.17685780421,-2.12215639878,1.56241837003
-8.64305738991,-1.51302116715,-1.27929717542,2.1640328866
2.16185917757,3.08081546991,-1.15643795206,5.76564740318
-1.95322425495,1.47465210697,-0.323578728705,4.70726191975
-3.50830768747,0.698488744034,-0.980719505351,4.88887643632
-1.85339111999,-3.7376746189,-4.04786028199,3.91049095289
4.96152544749,2.09616201816,-3.52500105864,4.62210546946
1.79644201497,3.88999865522,-2.40214183528,6.34371998604
7.30135858244,4.28383529229,-1.82928261192,6.07533450261
8.93627514992,2.31767192935,-2.30642338857,8.01694901918
4.9111917174,-3.99849143359,-6.14356416521,6.22856353575
-1.52389171512,0.545345203474,-5.55070494185,5.92017805233
-6.49194040698,0.227242005818,-3.75042877908,-0.351635174418
-0.789858914344,3.80914690534,-2.27126110145,1.36122768266
-4.91777742172,1.10105180485,-4.34209342383,-2.34590946026
2.10430407091,-4.85704329563,-5.80292574621,-4.16304660319
-0.743614436455,-1.48513839612,-4.77375806859,-0.110183746108
-0.621532943827,1.47676650339,-3.40459039096,5.28267911097
8.0905485488,2.17867140291,-3.02542271334,5.18554196805
5.27263004143,-7.74942369758,-4.22625503572,-0.0315951748757
-0.0752884659378,-3.41751879806,-2.5070873581,0.241267682201
2.70679302669,1.88438610145,-2.54791968047,2.75413053928
-3.53112548068,2.32629100097,-2.72875200285,3.43699339636
5.00095601195,-4.05180409952,-4.13958432522,2.05985625343
1.86303750458,-3.4998992,-3.2904166476,-0.517280889489
0.895118997207,-1.07799430049,-1.27124896998,1.09558196759
4.98720048984,-1.21608940098,-2.64208129235,1.81844482467
12.5292819825,-0.314184501462,-0.382913614732,-0.0186923182564
8.79136347509,1.01772039806,1.16625406289,4.01417053882
13.3634449677,-5.96037470243,0.445421740515,-2.6229666041
-0.514473539646,-11.6884698029,-3.95541058186,-7.19010374702
1.14760795298,-3.5365649034,-3.72624290424,-3.37724088995
3.06968944561,0.765339996113,2.35292477339,-0.424378032869
8.11177093825,-1.66275510437,1.48209245101,-1.97151517579
6.67385243087,-4.95085020486,0.681260128633,-4.08865231871
-4.2840660765,-7.68894530534,2.00042780626,-6.49578946164
1.09801541613,-2.73704040583,2.75959548388,-2.55292660456
6.05009690876,-2.61513550632,0.368763161499,-4.17006374748
5.40217840139,-7.1132306068,-1.33206916088,-7.4472008904
-7.97574010598,-10.9613257073,-0.792901483255,-9.00433803333
-6.68365861335,-10.2394208078,-1.57373380563,-9.84147517625
-3.87157712072,-6.26751590825,-1.77456612801,-6.38861231917
-9.61949562809,-4.50561100874,-2.04539845038,-5.39574946209
-7.12741413546,-8.18370610923,-1.83623077276,-5.16288660502
-11.4253326428,-4.63180120971,0.982936904864,-4.15002374794
-17.3732511502,-6.4398963102,0.082104582485,-5.27716089086
