-2.09565770347,-2.65926598837,6.61119186046,3.85538880814
-5.70327652901,-2.88701622871,5.25648436069,2.25686890565
-5.37089535454,-0.954766469054,4.24177686092,5.17834900316
-3.41851418008,-1.48251670939,2.01706936115,0.499829100665
0.953866994387,3.77973305027,0.262361861378,5.25130919817
-3.34375183115,0.961982809928,1.89765436161,3.61278929568
-3.06137065669,-0.575767430415,0.792946861835,-0.375730606806
0.231010517782,-0.113517670754,-0.0517606379362,4.9157494907
-5.40660830776,1.1987320889,1.55353186229,5.39722958821
-7.54422713329,1.43098184856,2.06882436252,-0.461290314276
-6.63184595883,-1.50676839178,1.50411686275,0.920189783233
-1.36946478437,2.38548136788,1.44940936298,7.34166988074
0.292916390099,9.10773112754,0.854701863207,7.89314997825
-1.16470243544,7.5799808872,-1.66000563656,4.64463007576
5.48767873903,0.612230646861,-3.17471313633,3.96611017327
-3.03994008651,-4.15551959348,-2.62942063611,-0.0824097292189
-4.13755891204,-11.8332698338,-3.71412813588,-8.29092963171
-1.09517773758,-10.2110200742,-3.40883563565,-8.2094495342
-3.09279656311,-4.8187703145,-2.33354313542,-6.49796943669
-7.97041538865,-3.32652055484,-1.80825063519,-8.60648933918
-10.9580342142,-4.41427079518,-1.10295813496,-3.78500924167
-9.73565303972,-0.692021035524,-1.20766563473,-4.89352914416
-7.61327186526,0.260228724135,-0.432373134501,-5.30204904665
-9.50089069079,-3.4375215162,-3.03708063427,-3.43056894914
-8.12850951633,-0.185271756545,-4.88178813404,-3.52908885163
-1.87612834186,-5.40302199688,-4.71649563381,-2.75760875412
-1.8237471674,-9.57077223723,-3.90120313359,1.28387134339
2.09863400706,-9.04852247757,-3.19591063336,-2.3046485591
8.51101518152,-2.23627271791,-2.92061813313,3.49683153841
11.223396356,-2.54402295825,-1.5253256329,9.36831163592
10.5257775305,-1.03177319859,-0.31003313267,5.04979173343
11.2981587049,2.27047656107,0.0552593675584,3.14127183094
10.2805398794,3.71272632073,0.780551867787,6.28275192844
14.6529210538,2.55497608039,0.185844368018,5.76423202595
12.8053022283,5.29722584005,-0.848863131754,8.07571212346
9.93768340278,4.54947559971,0.346429368474,6.10719222097
11.1400645772,5.90172535937,1.3117218687,2.15867231848
7.7324457517,7.45397511903,2.82701436893,3.07015241599
6.60482692617,4.47622487869,3.35230686916,1.4816325135
6.10720810064,-0.501525361655,2.14759936939,-1.34688738899
1.4195892751,0.230724398003,1.96289186962,-0.145407291478
1.70197044956,0.882974157666,1.60818436985,-0.963927193968
-0.165648375976,2.30522391732,1.86347687008,-2.82244709646
-0.663267201511,2.78747367698,1.78876937031,-3.70096699895
1.29911397295,5.18972343664,1.35406187053,0.560513098561
-1.46850485258,9.4219731963,1.15935437076,1.60199319607
2.28387632188,12.564222956,-0.215353129008,-1.02652670642
8.23625749635,1.24647271562,-0.140060628779,-2.10504660891
9.03863867081,-0.421277524722,-0.06476812855,-0.503566511401
6.61101984527,0.460972234941,-1.03947562832,3.68791358611
6.82340101974,0.503221994597,-0.534183128093,5.62939368362
3.0857821942,5.76547175426,0.611109372137,5.93087378113
3.58816336867,3.47772151392,0.756401872366,-0.687646121362
4.27054454313,2.20997127358,0.861694372596,-1.32616602385
5.69292571759,3.25222103324,-0.493013127176,0.235314073658
9.05530689206,3.0344707929,-2.00772062695,3.44679417117
5.35768806652,4.85672055255,-2.59242812672,2.26827426868
4.12006924099,6.99897031222,-0.37713562649,0.279754366186
5.99245041545,2.67122007187,3.38815687374,1.8112344637
2.53483158992,7.46346983153,3.62344937397,-0.027285438794
-1.18278723562,4.86571959119,4.1487418742,-4.95580534128
-4.14040606115,-0.312030649147,4.29403437443,-2.99432524378
-1.88802488669,0.750219110512,3.29932687466,-0.922845146265
-1.07564371223,2.68246887017,2.59461937488,1.94863495124
-3.96326253776,2.80471862983,1.59991187511,1.27011504875
-0.870881363298,-0.823031610511,0.645204375343,0.0815951462637
-0.47850018883,2.84921814915,0.540496875572,-1.15692475623
-1.73611901437,4.50146790881,1.3557893758,0.244555341283
-0.943737839905,-6.82628233153,-1.80891812397,-6.27396456121
-5.51135666544,-10.6540325719,-5.08362562374,-9.2724844637
-7.39897549098,-12.4317828122,-3.54833312351,-11.5410043662
-9.08659431651,-10.4495330526,-1.97304062328,-11.2595242687
-7.12421314205,-4.67728329289,-0.0677481230559,-5.02804417117
-3.80183196758,-2.36503353324,-0.592455622827,-10.9165640737
-0.279450793121,-0.112783773577,-1.4971631226,-9.35508397615
-1.22706961866,0.609465986079,-1.24187062237,-6.21360387864
-0.484688444194,-2.34828425426,-2.26657812214,-8.25212378113
-5.47230726973,-5.4660344946,-2.25128562191,-7.24064368362
-7.69992609526,-1.05378473494,-0.0559931216812,-4.80916358611
-6.5675449208,-3.68153497528,-1.41070062145,-7.0476834886
-6.93516374634,-2.49928521562,-0.455408121223,-9.73620339109
-6.09278257187,-4.41703545596,0.869884379004,-7.24472329358
-10.2604013974,-5.4947856963,-0.304823120767,-0.613243196072
-5.01802022294,1.88746406335,-1.40953062054,-2.57176309856
-0.845639048479,1.85971382302,-0.794238120308,1.48971699895
-4.81325787402,4.59196358268,0.51105437992,5.44119709646
-3.26087669955,2.68421334233,0.11634688015,3.82267719397
-0.338495525084,-1.48353689801,-1.74836061962,-0.185842708524
-0.636114350622,2.23871286165,-2.03306811939,-3.47436261101
1.13626682384,-1.18903737869,-3.22777561916,-5.2328825135
0.688647998308,-3.12678761902,-3.42248311893,-1.26140241599
2.28102917277,0.48546214063,-2.4071906187,-0.169922318485
-1.14658965277,-7.26228809971,-1.83189811848,-2.92844222098
-3.9942084783,-6.26003834005,-2.13660561825,-2.77696212347
-1.50182730384,-1.86778858039,-0.901313118018,-0.125482025956
1.55055387063,-4.31553882073,0.47397938221,1.91599807155
2.53293504509,-4.84328906107,-0.100728117561,-2.94252183094
-0.0746837804436,-3.58103930141,0.0245643826693,-3.39104173343
1.56769739402,-1.34878954175,-1.0401431171,-4.75956163592
1.49007856848,-3.97653978209,-3.21485061687,-4.72808153841
-0.527540257051,-8.59429002243,-3.65955811664,-5.1866014409
-5.05515908259,-8.72204026278,-2.86426561642,-8.81512134339
-4.74277790812,-3.02979050311,-1.41897311619,-6.98364124588
-0.890396733656,-2.99754074346,-1.10368061596,-3.57216114837
1.31198444081,-3.8752909838,-0.59838811573,2.47931894914
0.884365615271,2.86695877586,1.5369043845,4.08079904665
7.39674678973,8.97920853552,1.83219688473,6.35227914416
7.5191279642,5.68145829518,-0.392510615042,11.9537592417
0.511509138661,4.12370805484,0.962781885186,8.00523933918
-2.21610968687,1.9459578145,3.33807438542,1.45671943669
-4.13372851241,2.02820757416,3.57336688564,0.148199534198
-5.06134733795,1.21045733382,3.89865938587,-0.0403203682927
1.03103383652,-0.747292906519,3.3739518861,1.87115972922
-0.356584989018,6.80495685314,4.94924438633,5.49263982673
-0.10420381455,6.0572066128,5.20453688656,11.5141199242
2.34817735991,3.91945637246,3.33982938679,13.2256000217
-0.919441465623,4.20170613212,2.60512188702,10.0670801193
1.01293970884,4.18395589177,1.86041438725,8.53856021677
1.8053208833,9.02620565144,1.91570688748,4.78004031428
1.72770205777,5.57845541109,2.3209993877,3.18152041178
3.91008323223,1.47070517076,1.70629188793,4.11300050929
5.7124644067,0.192954930411,1.27158438816,4.7344806068
1.54484558116,2.72520469008,-0.413123111608,1.03596070431
-2.13277324438,1.93745444973,-1.14783061138,4.60744080182
-0.280392069912,-4.34029579061,-2.09253811115,3.56892089933
1.78198910455,-6.62804603095,-1.14724561092,-0.459599003158
-1.48562972098,-4.71579627129,-2.92195311069,-3.19811890565
-0.603248546518,-4.07354651163,-3.74666061046,-3.06663880814
-2.60732558139,-10.1844149709,-0.816420784888,-5.55500363372
-2.94511991278,-6.44686758949,0.461737662512,-1.53549078122
-11.0929142442,-4.36932020806,0.589896109912,-6.90597792872
-12.7307085756,-5.88177282663,0.818054557312,-10.3464650762
-7.50850290697,-15.7142254452,0.556213004711,-14.1469522237
-5.98629723836,-9.22667806376,0.924371452111,-6.66743937122
-2.19409156976,-2.18913068233,1.03252989951,-3.51792651872
-2.55188590115,-1.8415833009,0.88068834691,-1.92841366622
-6.82968023255,0.465964080529,1.62884679431,-0.478900813723
-5.52747456394,4.26351146196,1.90700524171,-2.20938796122
-5.69526889534,3.11105884339,2.07516368911,-2.20987510872
-8.44306322674,0.608606224829,2.17332213651,-0.400362256225
-3.74085755813,0.656153606262,1.24148058391,-4.63084940372
-7.79865188953,-1.14629901231,-0.620360968691,-6.31133655123
-7.71644622092,-3.82875163088,2.08779747871,-2.67182369873
-9.51424055232,6.69879575056,4.26595592611,4.81768915377
-6.55203488371,10.036343132,4.81411437351,-0.0527979937269
-2.8298292151,5.90389051342,5.38227282091,2.68671485877
-2.02762354651,10.3814378949,5.91043126831,6.14622771127
3.6845821221,10.9189852763,3.65858971571,9.67574056377
3.51678779071,7.12653265771,1.94674816311,7.57525341627
3.66899345931,4.94408003915,1.73490661051,3.72476626877
5.06119912792,3.29162742058,0.893065057908,5.35427912127
5.81340479652,4.78917480201,0.861223505308,7.12379197377
4.39561046512,5.97672218344,1.82938195271,-1.10669517373
2.95781613373,3.48426956487,0.707540400106,-2.74718232123
6.01002180233,-3.97818305369,-0.334301152492,1.57233053127
9.24222747094,-3.93063567226,0.0338572949076,6.61184338377
7.58443313955,-0.643088290832,-0.657984257694,3.51135623627
6.45663880815,3.5144590906,1.03017418971,3.57086908877
8.87884447675,4.97200647203,-1.15166736289,4.39038194127
7.18105014536,-0.900446146534,-3.48350891549,6.64989479377
3.41325581396,-3.1128987651,-2.78535046809,5.32940764627
5.88546148257,-2.45535138367,-2.05719202069,-0.151079501235
10.1876671512,-3.52780400224,-3.33903357329,-1.69156664873
11.5898728198,-0.750256620806,-3.67087512589,1.02794620376
11.7120784884,6.38729076063,-3.03271667849,7.23745905626
3.88428415699,1.71483814206,-2.5045582311,4.84697190876
2.50648982559,-6.05761447651,-2.22639978369,2.02648476126
0.508695494194,-1.92006709508,-1.39824133629,0.0759976137624
2.0909011628,0.437480286353,-1.5400828889,-1.77448953374
4.8731068314,5.98502766779,0.208075558505,5.70502331876
3.85531250001,5.07257504922,0.696234005905,9.88453617126
2.46751816861,2.61012243065,0.704392453305,3.33404902376
3.99972383722,-3.53233018792,-0.557449099297,-3.35643812374
4.59192950582,-6.47478280649,-1.59929065189,-6.10692527124
2.77413517443,-2.17723542505,-0.831132204497,-1.79741241874
1.50634084303,0.0403119563744,-0.0829737570966,0.992100433759
1.07854651164,1.28785933781,-0.294815309697,-2.46838671374
-1.20924781976,-0.0445932807634,-0.156656862297,0.0511261387592
-1.19704215116,-1.82704589933,-0.0984984148963,2.62063899126
-0.874836482551,-0.479498517896,0.539660032504,4.54015184376
-4.23263081395,1.34804886354,2.0178184799,7.48966469626
-2.39042514534,-0.514403755031,0.485976927303,4.03917754876
1.27178052326,-1.4968563736,-0.375864625297,1.30869040126
7.27398619187,4.83069100783,0.842293822101,0.908203253756
4.22619186047,3.91823838926,1.9304522695,3.55771610626
0.678397529078,-2.13421422931,1.4686107169,4.22722895876
0.500603197681,-3.18666684787,-0.873230835699,2.12674181125
0.102808866286,-1.05911946644,-1.9750723883,4.82625466375
-0.994985465106,1.56842791499,-2.7969139409,-0.164232483746
-3.5327797965,-4.13402470358,-3.5687554935,-3.49471963125
-5.0605741279,-4.46647732214,-2.8905970461,-3.60520677875
-4.64836845929,-1.74892994071,-2.1124385987,-0.885693926247
-4.02616279069,7.90861744072,-1.2542801513,3.51381892625
-4.84395712208,2.58616482215,-1.2461217039,0.363331778752
-1.70175145348,-8.08628779642,-2.0179632565,-11.1971553687
-0.989545784876,-7.36874041499,-2.5198048091,-7.86764251625
-5.26734011627,-4.79119303355,-1.4216463617,-2.97812966375
-6.17513444767,-7.36364565212,-3.1334879143,-8.45861681125
-2.20292877906,-5.63609827069,-5.1553294669,-10.4891039588
3.50927688954,-0.738550889258,-6.2671710195,-4.11959110625
6.67148255815,-4.62100350783,-5.6490125721,-0.730078253751
6.39368822675,-2.6334561264,-3.3608541247,-0.200565401252
4.50589389536,0.304091255035,-1.9626956773,-3.89105254875
-0.031900436039,-2.50836136353,-2.5745372299,-11.1115396963
-0.649694767431,-0.900813982102,-2.8863787825,-5.30202684375
-2.64748909883,3.48673339933,0.0517796648983,-1.17251399125
-3.84528343023,0.184280780762,0.399938112296,-0.213001138754
0.86692223838,4.1418281622,-0.121903440304,1.10651171375
2.91912790699,10.1193755436,-1.4137449929,3.38602456625
0.621333575589,4.37692292506,-2.3655865455,1.43553741875
1.84353924419,-1.42552969351,-2.2374280981,0.155050271244
3.8257449128,-3.18798231208,-2.3692696507,2.70456312374
3.7479505814,0.209565069355,-2.6911112033,1.07407597624
3.83015625001,3.31711245079,-2.7029527559,-0.656411171257
7.44236191861,0.264659832221,-1.5347943085,-1.54689831876
3.43456758722,0.242207213654,-1.31663586111,-0.097385466257
-1.47322674418,0.669754595081,-1.4684774137,-1.08787261376
-3.38102107558,-0.172698023485,-3.3603189663,-3.99835976126
-4.27881540697,-1.37515064206,-2.65216051891,-3.48884690876
-0.806609738363,4.30239673938,-0.164002071506,-0.42933405626
-1.24440406976,2.42994412081,-0.395843624105,0.96017879624
-4.96219840116,-0.382508497758,0.882314823293,-2.73030835126
-0.409992732551,7.08503888368,2.30047327069,-0.920795498761
1.26221293605,6.82258626511,1.43863171809,2.53871735374
3.08441860466,2.89013364654,2.09679016549,5.05823020624
8.03662427326,3.67768102797,3.42494861289,6.57774305874
8.33882994187,5.4752284094,2.41310706029,6.41725591124
8.58103561047,3.64277579084,2.51126550769,5.54676876374
3.51324127908,0.0503231722651,2.29942395509,5.82628161624
-2.21455305232,1.8678705537,3.06758240249,4.21579446874
-1.42234738371,-1.17458206487,2.02574084989,2.76530732124
-2.10014171511,0.282965316561,1.54389929729,1.88482017374
-2.88793604651,1.56051269799,1.39205774469,0.324333026235
-0.395730377899,-1.90193992058,-0.449783807908,-3.19615412126
-3.42352470929,-0.374392539143,-0.261625360508,-5.13664126877
-7.70131904069,1.97315484229,2.02653308689,-1.47712841627
-6.89911337208,-2.32929777628,2.79469153429,1.80238443623
-5.43690770348,-0.311750394845,3.10284998169,3.12189728873
-4.44470203488,-5.76420301342,3.33100842909,-0.638589858768
-3.15249636627,-6.31665563198,2.57916687649,-2.57907700627
-1.33029069767,-3.33910825055,2.85732532389,-2.78956415377
-3.83808502906,-2.47156086912,1.73548377129,-6.81005130127
-5.23587936046,-6.62401348769,0.0836422186894,-5.56053844877
-2.18367369186,-4.29646610625,-0.888199333909,-1.48102559627
-0.63146802325,-0.828918724823,1.82995911349,5.24848725623
-1.43926235464,-1.67137134339,2.95811756089,-3.09199989127
-1.98705668604,3.98617603804,1.48627600829,-7.27248703877
-4.09485101743,5.08372341947,0.76443445569,-4.19297418627
0.457354651167,-0.648729199096,-1.14740709691,-5.89346133377
0.109560319772,-3.22118181766,-0.539248649511,-3.14394848127
-2.13823401162,-4.82363443623,-0.68109020211,-2.63443562877
3.15397165698,-1.6860870548,2.23706824529,-0.584922776273
2.05617732559,2.60146032663,3.89522669269,8.78459007623
-5.44161700581,0.0790077080637,1.69338514009,2.09410292873
-0.469411337202,1.4965550895,-1.84845641251,3.76361578123
2.6027943314,0.894102470927,0.329702034887,7.85312863373
2.95088662792,0.723350290711,1.10498183139,3.87235101744
2.57953777354,1.69630811094,1.18870874153,-3.28882527811
2.91818891916,0.539265931158,2.30243565166,-2.17000157366
-1.72315993521,0.462223751387,2.5861625618,-1.14117786921
-3.15450878959,1.13518157161,2.01988947193,-1.03235416476
-4.84585764397,3.13813939184,1.23361638207,0.906469539688
-3.72720649834,1.16109721206,1.0073432922,-2.20470675586
0.211444647284,-2.03594496771,-0.938929797661,-2.09588305141
4.33009579291,-4.57298714749,-1.41520288753,-3.16705934696
-1.97125306147,-2.97002932726,-0.751475977389,-6.13823564251
-6.30260191585,-2.71707150704,1.97225093275,-5.38941193806
-7.12395077022,-2.55411368681,1.96597784288,-2.66058823361
-4.8652996246,-2.66115586659,1.19970475302,-2.53176452916
-1.14664847898,-3.96819804636,-2.10656833685,-0.382940824714
-2.12799733335,-4.15524022614,-2.18284142671,1.86588287974
-3.57934618773,0.767717594088,-2.00911451658,4.81470658418
2.9093049579,1.09067541431,-2.05538760644,-4.41646971136
-1.24204389648,-3.03636676546,-0.411660696303,-9.24764600691
-3.63339275086,-2.87340894524,-1.74793378617,-5.71882230247
-4.03474160524,-2.68045112501,-0.974206876033,0.140001401985
-0.206090459615,-1.57749330479,-0.290479965899,-3.42117489357
-0.487439313991,-6.71453548456,-0.756753055763,-5.86235118912
-0.468788168364,-3.84157766434,0.866973854372,-2.91352748467
1.40986297726,-2.22861984411,0.0807007645071,-2.04470378022
-2.65148587712,-3.57566202389,0.0344276746437,-2.19588007577
-0.212834731497,-3.50270420366,-0.26184541522,1.71294362868
0.865816414127,-1.41974638344,-1.31811850509,0.371767333133
1.76446755975,2.19321143679,-1.01439159495,1.19059103758
2.95311870537,3.78616925701,-0.030664684813,0.119414742032
1.771769851,3.68912707724,-0.366937774679,-2.03176155352
3.39042099662,3.58208489747,-0.263210864541,-0.532937849069
2.13907214224,8.26504271769,0.000516045593031,5.13588585538
2.61772328787,7.70800053791,1.40424295573,7.08470955983
4.24637443349,6.47095835814,2.26796986586,6.49353326428
4.69502557911,-0.426083821632,2.091696776,4.64235696873
3.27367672474,0.356873998589,1.27542368613,5.98118067318
4.70232787036,3.02983181881,0.309150596269,6.02000437763
3.37097901598,4.09278963904,-1.38712249359,4.11882808208
-1.10036983839,4.54574745927,-2.98339558346,1.72765178653
-0.641718692768,-1.03129472051,-1.84966867332,-1.34352450902
0.746932452857,-4.91833690029,-2.25594176319,-3.33470080457
-1.10441640152,-7.40537908006,-2.93221485305,-4.76587710012
-1.7557652559,-5.85242125983,-1.74848794292,-3.08705339567
-0.317114110276,-0.979463439609,0.0352389672207,3.57177030878
1.72153703535,-3.46650561938,-0.0810341226443,1.82059401323
1.46018818097,-1.18354779916,1.21269278749,4.31941771768
1.27883932659,4.94941002107,0.646419697625,6.30824142213
2.53749047222,2.90236784129,-0.649853392237,0.567065126578
-2.37385838216,2.13532566151,0.683873517897,-2.25411116897
-3.91520723654,-1.34171651826,0.637600428032,-4.02528746452
-3.12655609091,0.561241301966,0.56132733817,1.07353623993
2.33209505471,-0.885800877812,0.645054248303,1.98235994438
4.81074620034,2.25715694241,1.62878115844,1.29118364883
5.15939734596,6.83011476264,1.35250806858,0.880007353277
3.14804849158,11.8230725829,2.62623497871,9.95883105773
4.75669963721,6.72603040309,1.71996188885,7.33765476218
2.28535078283,3.58898822332,2.99368879898,4.18647846663
2.55400192845,5.27194604354,1.39741570912,9.63530217108
1.98265307408,5.30490386377,-0.0588573807472,5.72412587553
-0.628695780302,4.75786168399,-0.0851304706121,10.19294958
3.45995536532,3.62081950422,-2.25140356047,7.01177328442
5.15860651095,8.39377732444,-1.98767665034,2.63059698887
3.95725765657,7.46673514467,-1.95394974021,4.99942069332
3.0959088022,0.0696929648948,-1.71022283007,5.88824439777
3.03455994782,-0.767349214882,-2.51649591993,-0.792931897776
0.37321109344,-3.64439139466,-2.8327690098,-5.64410819333
-3.21813776094,-4.35143357443,-0.829042099662,3.22471551112
2.59051338469,-1.78847575421,-0.785315189527,4.49353921557
2.63916453031,-2.56551793398,-2.02158827939,-4.35763707998
-5.02218432407,-2.11256011376,0.00213863074532,-7.41881337553
-7.25353317845,1.77039770647,0.425865540881,-3.59998967108
-2.46488203282,-0.726644473303,1.64959245101,-0.341165966628
-2.3062308872,-1.76368665308,1.31331936115,-2.17234226218
-4.01757974158,-0.660728832856,2.04704627129,-4.25351855773
-2.46892859595,2.81222898737,1.97077318142,-0.0146948532783
-1.26027745033,4.7651868076,0.224500091557,-0.105871148829
-3.7616263047,1.21814462782,2.02822700169,1.41295255562
-5.90297515908,-0.228897551955,2.45195391183,-1.76822373993
-5.31432401346,-0.825939731731,0.855680821964,-2.56940003548
-3.37567286783,-3.6029819115,1.9694077321,-1.46057633103
-1.37702172221,-3.15002409128,1.09313464224,-0.41175262658
0.321629423415,0.702933728946,0.376861552371,3.11707107787
5.85028056904,1.80589154917,-0.969411537491,3.83589478232
5.33893171466,1.8188493694,-2.98568462736,2.75471848677
3.33758286028,-0.518192810381,-2.29195771722,2.33354219122
4.31623400591,-1.18523499016,-1.98823080709,-0.127634104331
3.13488515153,-3.10227716993,-2.12450389695,-0.108810399882
2.11353629715,-1.4593193497,-1.06077698681,0.850013304568
2.79218744278,-0.906361529476,-1.35705007668,-0.851162990982
1.8308385884,-1.06340370925,-1.11332316654,-4.99233928653
0.0294897340245,-0.20044588903,-0.539596256409,-3.94351558208
-1.58185912035,-0.777488068801,1.98413065373,-2.89469187763
-1.04320797473,-6.55453024858,-0.272142436137,-2.02586817318
-2.48455682911,-3.26157242835,-1.238415526,6.22295553127
0.464094316518,-3.40861460813,-0.0646886158665,-2.24822076428
-0.427254537859,-4.0056567879,-0.800961705731,-8.55939705983
-2.13860339224,-6.11269896768,-2.34723479559,-9.25057335538
-0.279952246612,-5.00974114745,-2.96350788546,-7.26174965093
-5.87130110099,-4.13678332723,-1.41978097532,-3.60292594648
-9.24264995537,-4.923825507,0.253945934812,-4.40410224203
-6.53399880974,-3.96086768678,2.21767284495,-3.20527853758
-3.37534766412,-3.20790986655,1.25139975508,-0.906454833135
-2.18669651849,-4.89495204633,0.325126665219,-0.947631128685
-1.10804537287,-4.0619942261,-0.501146424645,-5.91880742424
-1.09939422725,0.300963594123,-1.02741951451,-4.48998371979
1.69925691837,-3.88607858565,-1.20369260437,-1.47116001534
1.837908064,-6.65312076543,-1.29996569424,-2.97233631089
1.52655920962,-4.1601629452,0.773761215896,3.28648739356
-0.754789644754,-1.44720512498,0.787488126032,3.52531109801
-0.0561384991342,-2.08424730475,1.81121503617,0.644134802463
5.27251264649,0.268710515473,3.8249419463,-1.57704149309
0.841163792116,3.7616683357,4.77866885644,3.56178221136
0.109814937736,6.18462615593,3.68239576657,5.98060591581
0.298466083364,6.57758397615,2.69612267671,-1.45057037974
-4.86288277102,1.69054179638,0.559849586845,-3.21174667529
-3.94423162539,-0.586500383401,-1.00642350302,2.39707702916
-0.295580479768,-0.733542563175,0.577303407117,-1.43409926639
0.243070665856,-1.26058474295,0.121030317252,-0.205275561939
0.651721811479,4.56237307727,1.70475722739,8.75354814251
1.3203729571,5.0153308975,2.66848413752,10.472371847
0.279024102729,5.93828871773,1.81221104766,1.06119555141
2.44767524835,5.06124653795,0.595937957794,-2.91998074414
-0.273673606029,-0.455795641825,-1.93033513207,-1.53115703969
-1.2550224604,-2.5028378216,-3.14660822194,-3.19233333524
-1.00637131478,-1.66988000137,-2.3428813118,-3.06350963079
1.64227983084,1.20307781885,-1.71915440166,-0.914685926341
4.70093097647,3.91603563907,-1.52542749153,-1.29586222189
1.44958212209,4.4889934593,-0.831700581393,1.78296148256
-1.3607667151,-2.32462572674,-2.74929869186,-8.35149709303
-2.81422412904,-10.9255186779,-3.88775215734,-7.37039822148
-2.66768154297,-10.786411629,-2.89620562283,-10.7292993499
-2.66113895691,-7.0573045802,-2.10465908831,-11.7982004784
-3.27459637084,-6.31819753135,-2.72311255379,-9.22710160685
-3.47805378478,-3.61909048251,-1.99156601927,-5.43600273531
-4.39151119871,-0.169983433661,0.829980515244,-2.17490386376
-4.39496861265,-2.47087638482,0.681527049761,0.57619500778
4.17157397342,-2.98176933597,-2.83692641572,3.38729387932
4.38811655948,-0.342662287127,-2.13537988121,-4.27160724913
0.844659145547,2.87644476172,-0.703833346688,-3.65050837759
-2.26879826839,4.70555181057,-1.87228681217,-3.44940950605
-3.33225568232,-0.855341140585,-4.53074027765,-7.9483106345
-10.0657130963,-3.02623409174,-3.73919374313,-5.86721176296
-8.50917051019,-1.59712704289,-1.22764720862,-4.10611289141
-9.50262792413,-1.29801999405,0.0538993259015,-1.31501401987
-6.43608533807,1.4010870548,0.625445860418,-0.123915148327
-2.369542752,4.60019410364,0.836992394936,0.277183723217
-3.90300016594,3.01930115249,0.0385389294534,0.93828259476
-1.81645757987,2.13840820134,-1.01991453603,-1.2006185337
0.640085006195,2.25751525018,-3.00836800151,-3.52951966215
-0.913372407744,2.65662229903,-2.36682146699,-0.558420790609
-3.38682982168,-4.71427065212,-1.69527493248,-3.26732191906
-1.27028723562,-10.7051636033,-3.45372839796,-7.53622304752
-1.90374464955,-9.00605655443,-1.83218186344,-5.90512417598
-2.45720206348,-4.39694950558,0.279364671076,-1.56402530443
-3.98065947742,-2.54784245674,-0.229088794405,3.81707356711
-3.70411689136,-2.07873540789,0.582457740111,1.06817243865
-3.39757430529,-2.44962835905,1.08400427463,-3.6507286898
-1.64103171923,0.0994786898009,1.18555080915,-4.43962981826
-1.60448913316,2.97858573865,2.97709734366,-4.23853094672
-3.6279465471,3.96769278749,3.81864387818,0.252567924829
-4.78140396103,1.12679983634,1.7501904127,-0.106333203627
-4.83486137497,1.97590688519,2.67173694722,-0.195234332084
-6.5183187889,1.91501393403,2.41328348173,-1.11413546054
-5.57177620284,1.95412098288,0.434830016251,0.656963411003
-3.18523361678,2.56322803173,0.416376550769,4.33806228255
7.44130896929,1.89233508057,0.917923085286,4.80916115409
9.08785155535,1.06144212942,1.45946961981,5.17026002563
3.35439414142,1.74054917826,2.90101615432,6.10135889718
1.56093672748,4.36965622711,3.07256268884,9.39245776872
1.87747931355,3.16876327596,2.85410922336,5.54355664027
2.56402189962,0.0378703247989,2.34565575787,-0.495344488191
4.43056448568,0.416977373647,0.857202292393,1.55575438335
6.92710707174,2.25608442249,1.62874882691,4.0168532549
6.96364965781,3.01519147134,3.16029536143,4.57795212644
3.82019224387,4.44429852019,4.88184189595,5.97905099798
5.30673482994,4.15340556903,4.38338843046,8.35014986953
7.623277416,0.652512617879,1.10493496498,5.24124874107
7.49982000207,0.801619666727,0.126481499497,9.71234761262
2.99636258813,6.75072671557,2.14802803401,8.68344648416
5.74290517419,3.61983376442,1.68957456853,4.0945453557
4.74944776026,1.27894081327,1.94112110305,5.72564422725
6.03599034632,3.44804786211,2.35266763757,6.48674309879
6.13253293239,2.39715491096,1.40421417208,6.50784197033
3.45907551845,2.7762619598,1.8557607066,1.56894084188
1.33561810452,5.25536900865,4.96730724112,5.19003971342
0.832160690585,3.07447605749,3.29885377564,4.85113858496
-1.12129672335,2.24358310634,1.84040031016,5.32223745651
-0.774754137288,2.40269015519,0.461946844673,6.50333632805
0.131788448776,0.251797204037,-0.736506620809,-0.805564800405
2.03833103484,-4.22909574712,-0.574960086293,-4.74446592886
3.21487362091,-3.69998869827,-3.07341355178,-8.00336705732
4.14141620697,-1.73088164943,-3.15186701726,-3.96226818577
3.23795879303,-3.49177460058,-2.51032048274,2.60883068577
-1.2154986209,-1.28266755174,0.291226051779,6.75992955731
-4.46895603484,1.84643949711,1.8427725863,7.59102842886
-1.91241344877,-0.43445345404,0.734319120813,5.0621273004
-0.685870862704,-3.7853464052,1.27586565533,-0.486773828055
1.16067172336,-4.87623935635,0.367412189848,-2.33567495651
0.637214309423,-5.0071323075,-1.43104127563,-4.55457608497
1.36375689549,-1.92802525865,-0.089494741118,-0.483477213425
2.98029948155,2.61108179019,0.502051793403,6.81762165812
6.63684206762,5.52018883904,1.25359832792,6.34872052966
5.48338465368,5.25929588788,0.925144862436,7.82981940121
2.50992723975,3.30840293673,0.126691396954,7.62091827275
3.78646982581,1.92750998557,1.69823793147,5.76201714429
2.26301241188,1.20661703442,2.15978446599,3.06311601584
2.06955499794,1.94572408327,0.781331000506,3.68421488738
2.776097584,0.584831132113,-0.707122464977,5.29531375893
1.87264017007,4.38393818096,-0.92557593046,7.95641263047
5.54918275613,-1.06695477019,-2.83402939594,1.01751150201
2.3957253422,-1.10784772135,-2.72248286142,0.888610373556
-0.187732071736,4.3512593275,0.759063673095,4.3697092451
6.23881051433,4.64036637634,0.990610207611,2.29080811664
6.78535310039,8.76947342519,4.57215674213,1.60190698819
7.49189568646,11.208580474,5.47370327665,11.8130058597
5.42843827252,3.18768752288,-0.484750188836,6.15410473127
4.34498085859,-2.31320542827,-3.80320365432,3.58520360282
4.17152344465,-2.24409837942,-2.3616571198,4.36630247436
3.40806603072,-4.25499133058,-2.69011058528,-6.63259865409
2.97460861678,-3.06588428173,-2.88856405077,-4.47149978255
-0.768848797154,-1.94677723289,-2.27701751625,-4.15040091101
0.157693788911,3.30232981596,-1.43547098173,-7.66930203946
1.98423637497,2.23143686481,0.586075552786,-1.20820316792
2.60077896104,1.20054391365,0.727622087305,0.552895703625
0.307321547101,-0.4003490375,-1.21083137818,-4.40600542483
0.473864133168,0.828758011347,-1.26928484366,-1.74490655329
4.96040671923,3.79786506019,-1.25773830914,5.69619231826
5.93694930529,2.25697210904,-1.74619177462,3.9472911898
4.71349189136,8.49607915789,-0.234645240107,1.10839006134
1.85003447743,10.6651862067,2.00690129441,4.70948893289
3.75657706349,5.10429325558,1.16844782893,-3.29941219557
6.34311964956,7.27340030442,2.48999436344,1.37168667597
5.54966223562,7.80250735327,2.05154089796,3.90278554752
4.91620482169,8.21161440212,0.853087432479,5.86388441906
3.02274740775,4.77072145096,0.414633966999,6.95498329061
2.74928999382,0.209828499806,-1.96381949848,0.726082162148
5.50583257988,0.518935548655,-1.28227296397,3.60718103369
1.23237516594,2.4280425975,-0.14072642945,7.08827990524
-2.71108224799,-1.69285035365,0.270820105068,-3.08062122322
-4.80453966193,-6.18374330481,-1.25763336042,-11.9595223517
-3.64799707586,-7.45463625596,-3.6260868259,-12.2084234801
-5.9814544898,-5.46552920711,-3.94454029138,-9.54732460859
-8.85491190373,-4.16642215827,-3.33299375686,-9.79622573705
-9.75836931767,-8.99731510942,-2.72144722234,-8.1351268655
-7.76182673161,-8.98820806057,-1.36990068783,-10.354027994
-6.56528414554,-8.62910101173,-0.35835415331,-7.76292912241
-4.40874155947,-4.51999396288,0.293192381208,-1.39183025087
-3.29219897341,-2.33088691404,1.62473891573,-5.01073137933
-6.41565638734,-0.20177986519,2.27628545024,-6.82963250778
-5.47911380128,-2.17267281634,-0.372168015239,-5.99853363624
-7.57257121522,-5.9035657675,-0.320621480723,-6.3574347647
-8.92602862915,-3.24445871865,0.960925053796,-2.51633589315
-7.76948604309,-1.9253516698,-0.117528411687,-2.65523702161
-8.38294345702,-7.34624462096,-1.45598187717,-3.88413815007
-9.86640087096,-7.61713757211,-0.934435342651,-5.67303927852
-11.5798582849,-8.21803052327,-1.19288880813,-2.97194040698
-2.35656249999,-5.19868095929,-1.73452034884,-3.23934593023
1.62738681103,-4.70197683001,-1.38130201658,-1.72523959669
1.71133612205,-1.66527270073,0.0919163156886,2.91886673686
2.24528543308,-2.32856857145,0.195134647955,-1.53702692959
0.439234744099,-4.51186444217,0.43835298022,-3.28292059605
-1.68681594487,-2.96516031289,0.431571312485,-4.8988142625
-0.772866633855,1.35154381639,0.0347896447511,-4.86470792895
3.43108267717,3.45824794567,0.498007977016,6.54939840459
-1.91496801181,0.134952074946,0.471226309281,1.49350473814
-5.76101870078,-6.56834379577,-2.73555535845,-7.76238892831
-5.42706938976,-4.03163966649,-2.31233702619,-5.82828259477
-5.69312007874,1.49506446279,-0.879118693923,-6.07417626122
-3.05917076771,-1.29823140793,-0.615900361659,-4.61006992767
3.40477854331,-4.49152727865,-1.74268202939,-7.27596359412
3.19872785433,-0.21482314937,0.850536302871,-5.78185726058
5.07267716536,2.25188097991,0.393754635137,1.96224907297
6.08662647638,3.43858510919,-1.1730270326,0.576355406518
1.41057578741,3.71528923847,0.0801912996685,-0.419538259936
1.90452509843,3.67199336775,1.08340963193,1.72456807361
1.24847440945,1.99869749703,1.0266279642,0.578674407158
-1.76757627953,2.47540162631,2.11984629646,3.5627807407
-2.1736269685,5.34210575559,2.97306462873,0.766887074252
-0.779677657476,3.50880988487,0.546282960993,0.510993407799
-0.275728346453,1.10551401415,-0.320498706742,0.955099741346
3.99822096457,2.04221814343,-0.937280374477,7.35920607489
0.402170275593,3.05892227271,-1.83406204221,5.61331240844
-0.233880413383,6.21562640199,-0.540843709945,6.31741874199
0.600068897642,0.992330531273,-1.59762537768,2.00152507553
-1.63598179133,-2.38096533945,-0.944407045416,0.53563140908
0.867967519687,2.67573878983,1.41881128685,4.93973774263
4.30191683071,4.44244291911,2.26202961911,9.75384407618
5.91586614174,4.49914704839,2.25524795138,9.30795040972
4.18981545276,3.51585117768,1.13846628364,7.08205674327
2.78376476378,2.76255530696,0.191684615911,5.91616307682
4.9777140748,5.02925943623,-0.0550970518252,10.8702694104
3.12166338583,1.36596356551,-2.13187871956,6.59437574391
-3.07438730315,-1.0673323052,-1.57866038729,3.90848207746
-1.38043799212,-1.58062817593,-0.625442055029,1.282588411
-4.4864886811,-2.77392404665,-0.652223722764,-2.07330525545
-3.88253937008,-3.21721991736,-1.1690053905,-3.6191989219
-4.50859005905,-1.18051578808,-0.615787058232,-0.855092588355
-5.17464074803,-3.90381165881,-0.172568725968,-4.42098625481
-4.22069143701,-4.20710752952,-0.329350393702,-4.30687992126
-3.43674212598,-0.0904034002415,-0.0461320614377,-3.18277358771
-1.62279281496,-3.93369927096,0.267086270827,-3.35866725417
3.22115649607,-4.12699514168,0.840304603093,1.59543907938
5.09510580709,-0.710291012405,1.42352293536,4.44954541293
5.58905511811,7.59641311688,2.17674126762,11.7036517465
6.99300442914,8.58311724616,3.08995959989,10.22775808
9.22695374016,2.96982137544,1.83317793215,4.34186441357
9.01090305118,2.32652550472,0.356396264418,3.86597074712
6.9748523622,-0.146770366002,-1.86038540332,0.300077080662
2.54880167323,-2.04006623672,-3.22716707105,-1.31581658579
0.0627509842525,-3.37336210744,-1.93394873879,-1.70171025224
3.66670029528,-6.40665797816,-1.92073040652,-7.5176039187
2.2506496063,0.170046151121,-0.317512074256,-3.70349758515
1.71459891732,3.9467502804,1.00570625801,3.8906087484
1.10854822835,3.79345440968,2.37892459028,2.14471508194
-1.54750246063,2.53015853896,3.61214292254,0.768821415491
-2.9135531496,1.43686266824,4.02536125481,-1.17707225096
0.800396161416,1.15356679752,2.47857958707,-4.36296591741
-0.615654527559,-1.6597290732,-0.338202080664,-4.34885958387
-3.90170521654,-0.803024943918,-0.274983748399,-1.31475325032
-3.78775590551,0.633679185361,0.0982345838656,0.649353083226
-2.13380659449,0.950383314641,0.661452916131,-1.77654058323
-4.32985728346,2.15708744392,3.5546712484,-2.36243424968
-3.47590797244,3.3037915732,3.99788958066,1.05167208387
-1.11195866142,2.39049570248,3.24110791293,-1.18422158259
-0.728009350394,0.137199831759,3.95432624519,-0.840115249039
-1.89406003937,-2.24609603896,1.75754457746,-0.486008915491
-2.85011072835,0.710608090321,1.24076290972,-0.741902581944
-6.98616141732,3.4173122196,1.65398124199,-1.2777962484
-6.4122121063,-0.705983651118,0.627199574254,-4.70368991485
-5.91826279528,-2.86927952183,0.440417906519,-5.3395835813
-6.54431348425,-4.41257539256,-0.256363761217,-4.29547724776
-5.65036417323,-1.70587126328,0.306854571048,-4.32137091421
-6.5064148622,2.860832866,0.630072903314,-2.71726458066
-3.01246555118,0.0275369952833,-0.756708764422,-2.55315824711
0.651483759841,-0.595758875435,-1.47349043216,0.600948086431
-3.64456692914,-2.59905474616,-1.79027209989,-0.754945580022
-5.57061761811,-6.73235061688,-2.91705376762,-4.51083924647
-1.63666830709,-5.60564648759,-2.47383543536,-5.14673291293
1.44728100394,-4.81894235831,-2.52061710309,-4.12262657938
1.36123031496,-6.24223822904,-2.65739877083,-4.32852024583
0.86517962598,-2.95553409976,-1.56418043857,1.63558608771
0.199128937005,-0.868829970474,-2.7309621063,5.70969242126
-1.14692175197,-0.262125841196,-2.97774377403,-4.99620124519
-0.542972440944,-5.19542171192,-3.05452544177,-7.42209491165
-3.57902312993,-7.57871758264,-2.07130710951,-5.8179885781
-4.5850738189,-6.41201345336,-1.29808877724,-6.11388224455
-0.0511245078742,-4.68530932408,-2.79487044497,-5.069775911
-0.657175196851,-1.01860519479,-1.88165211271,0.914330422543
0.576774114168,2.40809893449,-0.258433780442,3.02843675609
3.45072342519,3.19480306377,1.08478455182,3.78254308964
2.49467273622,1.83150719305,0.028002884088,0.316649423184
-0.101377952757,-0.861788677674,-1.15877878365,-4.58924424327
-6.04742864173,-1.17508454839,-1.34556045138,-2.04513790972
-4.35347933071,1.20161958089,-0.882342119117,-5.34103157618
-2.33953001969,-1.94167628983,-1.52912378685,-5.72692524263
-4.03558070866,-4.13497216055,-0.415905454587,-1.82281890908
-0.51163139764,-2.84826803127,-1.11268712232,-3.98871257553
1.05231791338,0.618436098008,-0.179468790055,-2.97460624199
-0.393732775596,5.36514022729,0.28374954221,1.95950009156
1.01021653543,1.61184435657,-0.033032125526,-1.55639357489
4.09416584645,-1.47145151415,0.350186206741,-3.46228724135
4.42811515748,2.49525261513,2.373404539,4.6418190922
4.3820644685,-0.0980432555916,0.71662287127,3.00592542575
2.97601377952,0.0186608736876,0.669841203535,4.54003175929
3.21996309055,1.56536500297,0.953059535799,2.75413809284
-3.95608759843,0.052069132249,0.726277868065,2.94824442639
-4.27213828741,-0.77122673847,-0.64050379967,1.42235075994
-0.118188976383,-1.99452260919,-2.7172854674,-2.81354290652
2.29576033464,0.22218152009,-0.844067135138,3.91056342703
1.84970964567,-0.401114350629,0.759151197126,4.10466976058
7.23365895669,1.73558977865,0.572369529391,4.85877609412
5.80760826771,1.60229390793,1.35558786166,3.51288242767
-0.428442421264,2.45899803721,1.90880619392,1.93698876122
-0.944493110241,2.19570216649,0.212024526187,-2.13890490523
-2.58054379922,1.84240629577,-0.264757141547,0.785201428312
0.503405511805,0.419110425053,-1.45153880928,2.92930776186
1.17735482283,2.47581455433,-1.56832047702,2.18341409541
0.771304133854,-0.467481316387,0.284897855247,-0.372479571048
-1.41474655512,-0.490777187108,2.42811618751,-2.3283732375
1.7992027559,-0.0740730578254,2.15133451978,0.865733096046
4.19315206692,-0.137368928546,0.494552852044,4.22983942959
3.07710137794,2.00933520073,0.717771184309,5.16394576314
3.99105068897,3.39603933001,0.440989516574,3.45805209669
2.445,5.5927434593,0.954207848839,1.33215843023
-10.9778415698,-0.1390116279,2.49660973837,-5.56179869186
-10.6065763482,-6.13410347234,2.7655927543,-7.9769180038
-11.6053111266,-4.54919531679,3.48457577023,-10.1420373157
-11.0940459051,1.03571283877,3.89355878616,-9.78715662768
-9.76278068348,0.710620994327,3.64254180209,-5.65227593962
-9.44151546191,-10.5144708501,1.45152481803,-4.97739525156
-8.30025024034,-9.83956269455,-0.199492166044,-6.9025145635
-5.91898501877,-6.674654539,-0.620509150114,-7.70763387544
-3.6577197972,-7.63974638344,-2.00152613418,-7.37275318738
-3.55645457563,-7.73483822788,-2.47254311825,-7.46787249931
-3.75518935405,-9.02993007233,-1.55356010232,-10.2829918113
-2.73392413248,-6.35502191677,-0.434577086389,-9.67811112319
-0.202658910912,-3.81011376121,0.124405929542,-5.63323043513
-0.581393689343,2.31479439434,-0.836611054527,2.68165025293
-1.15012846777,6.6697025499,-0.337628038595,5.18653094099
-0.878863246198,1.09461070546,-0.568645022664,-1.18858837095
0.31240197537,2.80951886102,-0.339662006732,-4.36370768289
3.49366719694,-6.55557298343,-2.0106789908,-5.76882699483
7.41493241851,-6.00066482786,-3.96169597487,-2.64394630677
11.0461976401,-2.76575667231,-3.62271295894,0.000934381294428
9.81746286165,-4.93084851675,-3.17372994301,-1.97418493065
8.10872808323,-7.57594036119,-2.14474692708,-3.44930424259
4.8999933048,-4.49103220563,-0.825763911145,-0.294423554524
4.86125852637,-1.79612405008,-0.646780895213,-0.339542866463
5.80252374794,-1.26121589452,-2.80779787928,3.2553378216
6.50378896951,-0.886307738965,-1.82881486335,2.18021850966
3.80505419108,-1.16139958341,-2.19983184742,-3.29490080228
-0.343680587346,1.63350857215,-3.61084883149,-4.66002011422
1.80758463422,-0.271583272293,-4.46186581556,-6.44513942616
-0.261150144204,1.22332488326,-3.94288279963,-6.6002587381
-3.06988492264,-2.60176696118,-1.5938997837,-6.06537805004
-5.63861970106,-3.76685880562,0.845083232236,-5.51049736198
-4.73735447949,-4.00195065006,-0.655933751834,-6.55561667392
-5.97608925793,-5.0770424945,-1.0769507359,-9.17073598586
-5.97482403635,-4.32213433895,-0.247967719972,-8.39585529779
-6.94355881478,-3.80722618339,-1.74898470404,-3.94097460973
-3.74229359321,-3.81231802783,-2.17000168811,0.163906078327
-3.58102837164,2.19259012772,0.608981327821,-2.47121323361
-2.56976315007,-1.78250171672,-0.782035656248,-4.14633254555
-0.978497928496,-2.14759356116,-1.58305264032,-0.171451857491
-5.65723270693,-0.562685405603,-0.0340696243838,-0.00657116942966
-4.62596748535,0.702222749955,-0.995086608453,2.82830951863
-2.29470226379,4.40713090551,-0.666103592523,5.39319020669
1.39656295779,10.9520390611,-1.03712057659,5.63807089475
3.32782817936,5.29694721663,-1.64813756066,5.91295158281
1.41909340093,2.19185537219,-1.50915454473,5.14783227087
-2.0596413775,2.04676352775,-1.1501715288,4.57271295893
-2.83837615593,1.8016716833,-1.95118851287,-0.242406353004
-0.0371109343578,5.23657983886,0.037794503065,2.98247433506
1.84415428721,6.31148799442,0.996777518996,7.17735502312
3.57541950879,7.52639614997,0.485760534926,9.30223571118
3.89668473036,4.60130430553,0.134743550858,5.72711639924
2.46794995193,6.87621246109,1.29372656679,10.7119970873
5.0492151735,8.21112061664,2.32270958272,10.5768777754
5.57048039507,10.6860287722,2.03169259865,10.3717584634
3.48174561664,11.7109369278,1.14067561458,10.3966391515
2.59301083821,5.71584508332,0.789658630514,9.01151983954
2.35427605978,6.52075323888,1.25864164645,11.4964005276
3.49554128135,7.92566139443,2.75762466238,9.88128121566
5.78680650293,11.18056955,3.35660767831,13.7461619037
6.1980717245,9.99547770555,2.35559069424,21.9710425918
7.24933694606,9.3003858611,1.19457371017,13.5459232798
10.0106021676,8.86529401666,2.4735567261,8.36080396791
12.2018673892,8.51020217222,3.77253974203,15.285684656
10.3831326108,9.71511032778,3.34152275796,13.810565344
9.20439783235,8.99001848334,1.40050577389,13.5654460321
8.29566305392,5.14492663889,-0.250511210173,12.4503267202
7.89692827549,3.68983479445,-1.81152819424,6.36520740821
8.01819349706,0.444742950011,-2.68254517831,-0.629911903728
4.93945871864,-4.05034889443,-1.43356216238,1.87496878433
1.7507239402,-3.76544073888,-1.09457914645,7.32984947239
4.91198916178,0.629467416682,-1.69559613052,12.6247301605
7.06325438335,1.20437557224,0.0733868854149,7.52961084852
6.98451960492,-0.760716272205,1.95236990134,9.76449153658
8.73578482649,0.214191883355,0.991352917275,7.86937222464
6.32705004806,1.72910003891,1.53033593321,3.9042529127
3.89831526963,5.21400819447,2.62931894914,6.51913360076
3.7195804912,6.32891635003,4.00830196507,7.52401428882
7.33084571278,4.65382450558,3.567284981,3.09889497688
7.83211093435,6.18873266114,3.94626799693,8.73377566494
8.93337615591,3.6336408167,4.01525101286,9.558656353
6.88464137749,4.92854897226,3.97423402879,12.9335370411
7.69590659906,3.58345712781,2.61321704473,3.29841772912
7.76717182063,1.63836528337,0.312200060656,1.58329841718
4.3784370422,1.78327343893,2.16118307659,-0.881820894755
0.0297022637715,1.35818159449,3.33016609252,-3.04694020669
-1.21903251466,-0.566910249956,0.889149108449,-4.74205951863
-5.67776729309,-5.8420020944,-0.671867875619,-6.24717883057
-8.80650207151,-7.54709393884,2.03711514031,-6.69229814251
-8.95523684995,-4.47218578328,1.09609815624,-10.0174174544
-9.32397162837,-4.91727762773,1.10508117217,-5.39253676639
-10.1027064068,-3.74236947217,2.13406418811,-1.39765607833
-9.18144118523,-3.56746131661,1.14304720404,-11.8327753903
-6.51017596366,-1.44255316105,1.71203021997,-9.08789470221
-5.96891074209,0.292354994504,2.6710132359,-1.97301401415
-7.76764552052,-2.30273684994,1.57999625183,-6.84813332609
-5.79638029895,-2.10782869438,1.26897926776,-6.54325263803
-3.71511507738,-1.75292053882,-0.0520377163066,-5.61837194996
-4.59384985581,-0.0780123832665,2.09694529963,-4.7334912619
-7.00258463423,3.06689577229,2.80592831555,-0.328610573843
-6.95131941266,3.20180392785,3.77491133149,-3.76372988578
-5.22005419109,-0.133287916593,2.21389434742,-5.39884919772
-3.67878896952,-2.88837976104,2.32287736335,-5.53396850966
-3.82752374795,-1.17347160548,1.94186037928,-2.7590878216
-3.12625852638,2.02143655008,0.470843395211,-0.754207133538
-1.52499330481,1.27634470564,0.719826411143,2.09067355452
-0.723728083234,2.44125286119,1.49880942707,1.34555424258
2.21753713833,3.08616101675,2.23779244301,1.41043493064
6.6288023599,4.31106917231,1.61677545894,4.1653156187
8.33006758148,8.23597732787,0.925758474867,7.52019630676
8.23133280305,6.74088548342,1.1247414908,6.71507699483
8.77259802462,5.63579363898,0.613724506729,6.99995768289
7.97386324619,5.79070179454,-0.38729247734,8.72483837095
5.38512846776,5.5856099501,0.501690538591,10.019719059
4.97639368933,2.12051810565,0.220673554522,2.64459974707
2.1176589109,-5.41457373879,-2.96034342955,-5.23051956487
-2.81107586752,-10.2696655832,-4.85136041361,-11.8456388768
-5.75981064596,-8.01475742767,-4.87237739768,-8.65075818875
-5.27854542438,-10.3298492721,-5.14339438175,-12.2458775007
-4.84728020281,-11.4049411166,-5.56441136582,-13.6509968126
-8.06601498124,-11.470032961,-4.55542834989,-11.4861161246
-8.59474975967,-11.8551248054,-5.96644533396,-11.3512354365
-11.3534845381,-8.80021664988,-4.77746231803,-6.81635474844
-11.8222193165,-8.40530849433,-2.9884793021,-13.3614740604
-5.59095409496,-7.91040033877,-3.74949628617,-13.2765933723
-5.27968887339,-4.92549218321,-2.47051327023,-7.02171268426
-2.40842365182,-4.34058402766,-2.4515302543,-5.4068319962
-0.367158430246,-4.8856758721,-2.40254723837,-4.07195130814
-2.23245344871,4.90356805666,1.89533438237,3.03479019145
-3.962134673,7.61997897616,2.86257600186,2.70222998972
-4.20181589728,1.76638989567,3.13981762134,-7.45033021201
