-27.1076489825,-0.596864098814,-1.23759811047,-10.4813953488
-15.2147652387,-5.90526486103,-1.42098485282,-10.5893925678
-12.2518814949,5.20633437674,2.16562840482,-3.20738978667
-21.8189977511,9.03793361451,4.23224166247,-2.09538700558
-28.2761140073,12.0895328523,7.63885492012,5.6666157755
-19.0632302634,15.9211320901,11.9654681778,10.0686185566
-21.7103465196,8.03273132785,3.93208143541,0.890621337669
-16.1474627758,5.56433056562,-1.96130530695,-5.94737588125
-11.844579032,-7.9040701966,-4.6346920493,-10.4653731002
-5.65169528816,-6.26247095882,-2.92807879166,-9.95337031908
-0.528811544347,-12.980871721,-3.49146553401,-9.72136753799
-4.31592780053,-13.4692724833,-1.78485227637,-12.0693647569
-1.36304405671,-7.3576732455,-4.20823901872,-12.2473619758
-0.310160312882,-0.616074007718,-4.06162576108,-7.93535919474
-1.57727656906,8.82552523007,1.53498749657,-0.713356413658
-1.28439282524,-3.66287553216,0.121600754212,-2.27135363257
-0.991509081432,-10.1812762944,-2.69178598814,-5.37935085149
4.90137466239,3.86032294339,-1.4251727305,-4.16734807041
0.764258406212,-2.11807781883,-2.92855947285,-4.86534528932
-2.00285784997,-0.656478581055,0.948053784792,-0.843342508238
-2.05997410615,-0.154879343274,0.774667042439,-2.60133972715
7.60290963767,-5.22328010551,-2.00871969992,0.21066305393
2.1557933815,-1.05168086773,-3.67210644227,1.22266583501
2.73867712531,15.2299183701,3.22450681538,3.9946686161
2.07156086913,5.80151760783,2.50112007302,3.03667139718
7.55444461295,-6.61688315439,-1.89226666934,4.91867417827
12.9673283568,-2.27528391662,0.444346588311,4.31067695935
15.4102121006,7.43631532116,2.80095984596,9.99267974043
9.42309584441,9.81791455894,1.3375731036,10.9946825215
10.0959795882,1.84951379672,0.494186361244,6.9066853026
6.90886333205,8.02111303449,2.21079961889,8.60868808369
0.161747075865,4.97271227226,2.97741287654,2.29069086477
8.79463081969,14.50431151,8.26402613418,5.06269364585
5.53751456351,12.5859107478,2.00063939182,7.34469642694
3.56039830733,-0.462490014404,-1.97274735053,5.37669920802
3.96328205115,7.72910922338,3.24386590712,5.93870198911
4.74616579496,-5.33929153885,2.50047916476,2.54070477019
3.43904953879,25.3623076989,8.36709242241,13.4227075513
3.73193328261,-0.736093063293,-4.09629431995,3.03471033236
4.49481702643,-11.2744938255,-5.3096810623,-2.30328688656
2.86770077025,-6.75289458774,0.286932195342,2.89871589453
0.690584514065,0.428704650032,3.74354545299,3.10071867561
2.95346825788,-1.34969611219,-1.62984128937,1.38272145669
5.9963520017,-0.178096874413,-3.81322803172,1.96472423778
7.04923574552,2.24350236337,-0.826614774078,3.35672701886
8.88211948935,0.825101601142,2.79999848357,3.91872979995
5.38500323316,6.57670083892,1.06661174121,2.13073258103
8.69788697698,-4.59169992331,-2.82677500114,1.23273536211
11.8107707208,-4.14010068553,-3.4901617435,7.6747381432
7.83365446462,4.18149855225,1.34645151415,6.78674092428
8.08653820844,6.92309779002,3.57306477179,6.95874370537
5.31942195226,-11.2153029722,-3.32032197056,-1.50925351355
9.37230569608,0.146296265579,3.34629128708,8.33274926753
12.6151894399,-2.86210449664,-1.82709545527,-0.475247951381
7.14807318372,-5.81050525887,-2.21048219763,0.326754829702
6.46095692754,6.83109397891,1.86613106002,6.33875761079
4.49384067136,-0.357306783313,0.512744317664,4.78076039187
9.30672441518,19.2942924545,4.63935757531,16.382763173
12.819608159,12.1958916922,3.77597083295,11.104765954
9.59249190282,21.14749093,1.8225840906,9.23676873512
4.31537564664,-22.4009098322,-3.40080265175,-7.86122848379
1.23825939046,-4.17931059443,5.93581060589,-2.78922570271
2.56114313428,-0.617711356652,-0.557576136463,4.83277707837
0.774026878091,3.01388788113,-2.40096287882,0.0247798594592
0.646910621916,-9.13451288109,-5.72434962117,-1.02321735946
0.0997943657349,-10.7129136433,-5.44773636353,-5.06121457837
3.90267810955,-6.33131440555,4.84887689412,-2.28921179729
1.42556185338,2.29028483223,3.78549015176,0.412790983794
1.5884455972,8.31188407001,3.51210340941,1.04479376488
2.01132934101,0.273483307785,0.0987166670511,-1.12320345404
1.61421308483,-12.7749174544,-5.1646700753,-8.72120067295
-0.562903171347,-7.04331821666,-2.48805681766,-0.75919789187
4.84998057247,-7.37171897889,-6.70144356001,-9.03719511079
4.1128643163,-19.8101197411,-6.22483030237,-3.3951923297
-0.524251939889,1.81147949667,1.14178295528,5.29681045138
-3.74136819608,-10.5369212656,-3.61160378708,-3.89118676753
-0.718484452249,-17.6553220278,-0.734990529432,-10.6091839864
2.70439929157,-2.27372279,4.10162272821,-7.45718120537
2.01728303539,0.707876447777,3.64823598586,-1.17517842428
-0.839833220787,-14.1505243144,-5.7051507565,-3.6831756432
-9.05694947697,-6.17892507667,-0.308537498853,-13.8311728621
-5.92406573315,-19.5173258389,-2.71192424121,-11.949170081
-9.63118198933,-18.6757266011,-4.13531098356,-9.97716729994
-8.47829824551,-1.95412736334,1.82130227408,-5.75516451886
-4.51541450169,11.5274718744,8.40791553173,-2.71316173778
-4.60253075787,-1.93092888779,1.95452878937,3.34884104331
-4.48964701405,-28.34932965,-10.418857953,-11.9891561756
-0.326763270234,-14.9777304122,-7.36224469534,-10.4171533945
-0.383879526409,-6.22613117445,-6.16563143769,-4.29515061344
-2.0809957826,-4.53453193668,-4.63901818005,-3.91314783236
2.46188796122,-6.7229326989,-5.1824049224,-1.27114505127
3.20477170504,-13.7713334611,-4.50579166475,-2.31914227019
-0.162344551136,8.72026577665,0.560821592891,-3.19713948911
1.47053919268,-2.75813498557,-0.742565149465,4.09486329198
6.97342293651,-7.4965357478,-1.69595189182,8.87686607306
6.13630668032,4.40506348998,0.260661365826,0.948868854148
3.31919042414,6.35666272776,-3.33272537653,0.720871635231
5.63207416796,-3.73173803446,-4.27611211888,2.62287441632
3.46495791178,-2.94013879669,-1.19949886124,-0.525122802601
-0.102158344394,6.93146044108,-1.28288560359,7.20687997848
-0.329274600575,-11.1769403211,-5.56627234595,-0.631117240432
1.64360914325,-1.43534108336,-3.4296590883,-0.53911445935
7.62649288706,2.90625815442,1.72695416934,3.48288832174
6.95937663088,6.68785739219,-1.92643257301,8.31489110282
2.2022603747,3.47945662997,-0.559819315367,3.2668938839
1.98514411852,-2.94894413225,-1.32320605772,-1.94110333501
3.30802786234,-0.00734489447495,-2.96659280008,0.870899446072
2.62091160616,7.7342543433,0.730020457568,8.47290222715
2.93379534998,4.14585358107,0.656633715213,2.70490500824
-2.9633209062,14.8374528189,2.18324697286,4.67690778932
0.329562837615,10.5690520566,1.2598602305,8.72891057041
-2.78755341857,-2.04934870559,-6.19352651185,-4.47908664851
-2.76466967474,10.6322505322,-2.43691325421,2.33291613258
-1.19178593092,9.64384976996,1.19970000344,6.58491891366
-0.0989021870992,31.7054490077,8.65631326108,4.83692169474
-4.71601844329,-16.9229517545,-3.42707348127,-4.59107552417
-4.44313469947,-26.7913525167,-3.08046022363,-1.25907274309
-4.53025095564,-3.15975327892,3.52615303402,4.402930038
-5.28736721182,18.7118459588,8.76276629167,5.18493281908
-7.02448346801,23.6834451966,10.6593795493,8.89693560016
-4.20159972418,-2.3249555656,5.07599280695,-5.90106161875
-6.04871598036,-4.68335632782,3.1226060646,-6.90905883767
-5.61583223655,-2.89175709004,0.339219322246,-9.29705605658
-12.6129484927,15.0198421477,8.59583257989,-3.4350532755
-13.8100647489,-2.9185586145,-2.83755416246,-6.76305049442
-10.9171810051,3.84304062329,4.88905909518,1.25895228667
-13.9142972613,14.6446398611,3.24567235283,-6.49904493225
-11.6214135174,8.93623909884,4.37228561047,-4.07704215116
-6.57579215115,11.8268313954,3.12325944767,6.95933866279
-7.987051822,-15.1249051227,-6.12530935269,-8.36517356024
-9.28831149284,-15.9766416407,-5.11387815304,-14.5096857833
-11.4395711637,-3.94837815874,-0.122446953401,-5.36419800632
-12.8508308345,3.82988532322,0.998984246242,-1.43871022935
-11.5620905054,-3.18185119482,0.310415445883,-6.26322245239
-8.34335017623,-11.2035877129,-5.53815335447,-3.05773467542
-15.6346098471,-11.0953242309,-3.16672215483,-10.7622468985
-7.81586951793,0.302939251073,0.634709044814,-1.9267591215
-6.16712918878,3.73120273303,-0.133859755544,-1.14127134453
-4.22838885963,1.099466215,0.8775714441,-4.82578356757
-6.81964853048,19.067729697,3.91900264374,7.6797042094
-9.48090820132,14.9359931789,-11.2295661566,2.61519198636
-4.84216787218,-16.0657433391,-5.29813495697,-3.72932023668
-0.13342754302,-5.10747985715,-3.19670375733,2.26616754029
-1.67468721387,8.52078362481,-0.395272557686,5.65165531725
-0.475946884719,7.51904710678,1.73615864196,8.29714309421
1.93279344444,-5.31268941126,-1.9024101584,0.432630871178
-2.24846622641,2.8955740707,0.989021041245,2.04811864814
-1.62972589726,-10.3061624473,-0.0195477591133,-5.27639357489
1.96901443189,6.76210103463,6.47188344053,3.98909420207
5.20775476105,4.33036451659,0.283314640172,7.47458197903
2.00649509019,18.8386279985,0.114745839817,0.670069755998
2.20523541935,-13.2331085195,-5.09382296054,-7.39444246704
4.2039757485,7.02515496247,2.7876082391,3.76104530993
-0.537283922349,5.27341844444,-0.0709605612556,4.12653308689
2.4314564068,4.4116819264,3.80047063839,5.43202086385
2.59019673595,23.2099454084,8.99190183803,11.2275086408
2.98893706511,1.30820889032,5.75333303767,4.53299641778
8.11767739426,13.8964723723,7.77476423732,13.0284841947
13.3464177234,11.8847358542,10.756195437,15.4539719717
8.44515805256,32.9229993362,6.6876266366,12.0194597487
4.80389838172,-9.12873718182,-2.02094216375,7.59494752564
8.59263871086,-19.4304736999,-4.42951096411,3.1304353026
5.60137904002,28.7177897821,6.93192023553,7.94592307956
8.52011936917,24.9460532641,2.57335143517,7.46141085653
2.56885969832,35.694316746,2.89478263482,10.7068986335
10.3676000275,-8.377419772,-6.51378616554,-7.72761358954
7.92634035663,-10.73915629,-0.872354965897,4.70787418742
5.39508068578,2.75910719192,6.41907623375,12.9833619644
10.1738210149,10.0873706739,8.15050743339,13.4788497413
12.0225613441,-2.22436584416,1.53193863303,9.06433751831
9.52130167324,8.44389763782,2.72336983267,3.76982529528
5.49004200238,-10.2178388802,1.23480103232,1.12531307224
9.10878233154,6.34042460174,4.63623223196,-1.3791991508
7.71752266069,4.95868808369,-3.0723365684,-4.74371137383
5.52626298984,16.7569515657,10.5290946312,5.81177640313
7.825003319,-27.2747849524,-10.8794741691,-1.8927358199
2.83374364815,-15.1265214704,-6.28804296947,-6.35724804294
7.7224839773,0.611742011548,0.413388230176,-0.221760265978
10.1112243064,16.5000054935,-1.54518057018,4.96372751099
9.94996463561,0.0482689754717,-4.24374937054,-4.88078471205
4.44870496475,-13.9634675426,-3.09231817089,-7.98529693508
3.16744529391,-16.9552040606,-5.04088697125,-7.68980915812
-1.12381437694,-13.2169405786,0.29054422839,-6.58432138116
3.16492595221,-5.45867709667,6.28197542803,-4.13883360419
1.63366628136,30.4995863853,1.12340662768,8.31665417277
3.26240661051,15.3278498673,8.32483782732,5.26214194973
1.78114693966,-29.2638866508,-7.98373097304,-7.9423702733
-1.80011273118,-25.7456231688,-17.5922997734,-10.1268824963
-4.37137240203,-8.24735968686,-5.18086857375,-4.89139471937
2.32736792712,-20.6090962049,-3.22943737411,-1.64590694241
8.11610825628,1.92916727706,10.6119938255,3.45958083455
2.16484858542,17.577430759,3.71342502518,5.21506861152
0.033588914579,4.70569424099,0.724856224821,-1.30944361152
6.02232924373,-22.386042277,-8.83371257554,-8.23395583455
2.60106957288,-27.8577787951,2.63771862411,-14.6384680576
9.13980990204,0.440484686878,-4.38085017625,-1.60298028063
10.5985502312,-17.4612518312,1.59058102339,-2.95749250366
6.89729056034,-13.1729883492,6.52201222303,-3.1320047267
2.13603088949,-3.35472486723,-4.62655657732,5.28348305027
-4.84522878136,-18.3764613853,-6.50512537768,-6.11102917277
-8.71648845221,-0.288197903305,0.746305821966,2.63445860419
-12.5877481231,6.31006557866,4.86773702161,-3.19005361884
-8.1590077939,-1.38167093938,2.62916822125,-6.85456584188
0.479732535248,-12.1734074574,-4.35940057911,1.53092193508
3.78847286441,1.32485602454,-4.34796937946,1.92640971205
-0.462786806449,6.53311950652,6.65346182018,-3.20810251099
-2.48404647729,-14.2086170115,1.29489301982,-8.59261473402
-0.425306148136,-0.990353529567,-5.07367578054,-2.95712695706
2.11343418101,24.5779099524,7.78775541911,2.4883608199
3.54217451016,9.62617343436,4.34918661875,2.42384859687
-4.65908516069,-3.24556308368,3.10061781839,2.60933637383
-1.74034483153,-33.7572996017,-7.55795098196,-16.8551758492
-3.42160450239,-19.9790361198,-0.0165197823208,-7.76968807224
-12.1628641732,18.1292273622,6.56491141732,-4.76420029528
-7.85412384408,-2.14250915583,4.97634261697,-4.26871251831
-4.37538351493,-10.7642456739,-7.60222618339,-7.03322474135
-7.66664318577,-6.2559821919,1.67920501625,-8.18773696439
-5.49790285662,4.52228129007,4.2406362159,-0.47224918742
-4.94916252747,-18.359455228,-3.89793258446,-14.6167614105
-7.90042219832,-3.61119174601,-7.28650138482,-7.12127363349
-4.57168186917,-12.662928264,-5.17507018518,0.394214143471
-5.00294154001,6.54533521791,-2.02363898553,1.60970192043
-6.45420121086,-0.786401300116,0.217792214111,-8.4148103026
1.18453911829,-5.16813781816,-11.6407765862,-10.0193225256
-2.86672055256,17.3001256638,-7.6593453866,-7.28383474867
-10.3779802234,-3.39161085423,4.55208581304,-11.2183469717
-3.61923989425,2.05665262773,-2.84648298732,2.71714080525
-12.2904995651,4.65491610969,3.03494821232,-7.51737141778
-9.16175923595,-25.6068204083,-2.34362058803,-20.5618836408
-6.2030189068,-11.7285569264,-5.44218938839,-4.99639586385
-7.52427857764,-11.6102934444,-6.38075818875,-13.7109080869
-15.7055382485,-25.0020299625,-0.0193269891042,-7.64542030993
-8.35679791934,-11.6137664805,-2.31789578946,-4.94993253296
-3.43805759019,4.64449700147,0.953535410183,2.855555244
-4.78931726103,35.0627604834,7.81496660983,6.86104302097
-3.23057693188,-4.8089760346,-2.57360219053,-3.21346920207
-4.30183660273,-18.8407125526,-5.80217099089,-4.79798142511
4.02690372642,1.98755092932,-11.0307397912,-5.41249364814
-6.77435594443,28.6558144113,2.7406914084,1.88299412882
2.81438438473,2.66407789325,0.0921226080409,3.00848190578
4.93312471388,1.59234137521,3.26355380768,4.42396968275
-5.26813495697,7.20060485717,10.5849850073,2.05945745971
-4.72939462782,-3.68113166087,-1.97358379303,2.51494523668
-7.89065429867,-8.4828681789,2.34784740661,-6.44956698636
-0.541913969515,22.5653953031,1.16927860626,5.8959207906
2.85682635964,-11.426341215,-1.5092901941,3.87140856757
0.815566688783,-15.738077733,-3.53785899446,-0.303103655468
3.51430701794,1.76018574895,0.513572205184,4.9323841215
5.16304734709,30.7984492309,13.3250034048,20.1178718985
7.60178767624,4.87671271287,-0.14356539553,16.4633596754
9.11052800539,17.3449761948,1.01786580411,14.7888474524
7.87926833455,-12.0267603232,-6.15070299624,3.98433522935
12.3280086637,6.62150315876,-3.5992717966,15.0098230063
10.0167489928,39.4097666407,6.26215940304,22.0353107833
8.44548932201,32.4680301227,13.9635906027,11.5307985602
2.70422965116,-10.2937063954,-0.564978197672,4.11628633721
-6.85813445377,-12.0160336134,-3.81793277311,-8.12942857143
-3.34134912146,12.8110343774,2.63638044308,5.45964553094
3.90543621086,-4.08189763177,-2.18930634072,2.07871963331
5.03222154317,23.8051703591,1.20500687547,16.8177937357
-2.47099312451,-9.83776165009,1.15932009167,-3.10313216195
1.6057922078,-5.73069365926,6.83363330787,6.01594194041
1.85257754011,-9.67362566843,-1.48205347594,-5.34498395722
0.069362872433,2.8134423224,-1.59774025974,-11.4759098549
-1.72385179525,40.5205103132,8.88657295645,-1.37683575248
0.91293353706,3.32757830407,-4.63911382735,2.46223834989
-1.29028113063,-7.25535370511,-6.61480061115,-13.9986875477
-1.39349579831,19.6117142857,1.09951260504,14.0503865546
-0.556710466,-48.1212177234,-9.51617417876,-5.62053934301
-2.48992513368,-17.4841497326,-2.75186096257,-10.3214652406
-3.85313980137,-1.27708174178,5.16245225363,-3.06239113827
10.793645531,-6.00001375094,3.19676546982,-1.5033170359
16.1204308633,-15.8429457601,0.291078686017,5.21575706646
2.91721619557,2.27412223072,6.05539190221,6.30483116883
-1.85599847211,28.7411902216,3.47970511841,6.6539052712
-9.7792131398,-12.6817417876,-1.1459816654,-4.67702062643
-9.97242780748,-13.3846737968,-4.5016684492,0.232053475936
-7.86564247517,-8.26760580594,-2.027355233,-3.8688724217
0.271142857149,4.46946218488,0.876957983193,-4.64979831933
6.69792818946,10.5665301757,-1.57872880061,5.68927578304
5.45471352177,28.6235981666,0.655584415585,9.21834988541
0.0314988540922,1.43066615738,2.30989763178,3.23742398778
2.31828418641,-9.09226585178,-7.59578915202,-2.91350190985
2.25506951872,19.104802139,3.75852406417,6.94557219251
-1.59814514896,-3.91812987012,0.202837280367,-3.81535370512
-0.411359816651,3.76893812072,6.09715049656,-2.63627960275
-1.40457448434,-18.3739938885,-4.53853628724,0.262794499618
-3.87778915202,-3.10692589762,-6.42422307104,-1.45813139801
-1.39100381971,11.3501420932,4.62009014515,2.11094270435
1.89578151261,-7.07278991596,1.89440336135,-4.79998319328
