-4.05295784883,-10.2252434593,0.347747093023,-8.18406613372
-7.89792849294,-10.9738444481,1.05764969786,-13.5424961946
-10.9428991371,-8.34244543695,-0.0424476973094,-13.0909262555
-9.83786978117,-7.97104642579,0.807454907528,-8.24935631638
-12.9128404253,-8.41964741462,-0.372642487637,-13.1177863773
-10.3378110694,-10.3282484034,0.717260117195,-12.4662164381
-8.36278171351,-5.98684939228,5.94716272203,-7.26464649904
-7.51775235762,-4.3154503811,4.49706532686,-6.39307655992
-2.77272300173,-8.67405136993,0.256967931698,-8.70150662081
-10.3376936458,-9.93265235877,-0.733129463468,-9.94993668169
-11.89266429,-7.5312533476,-1.96322685863,-9.40836674258
-1.06763493407,-2.43985433643,-1.4233242538,-0.616796803468
4.01739442182,5.91154467475,5.05657835104,6.30477313565
-2.6175762223,3.08294368591,7.82648095587,2.75634307476
-6.00254686642,-2.89565730291,-0.893616439294,-6.78208698613
-2.52751751053,-5.76425829175,-4.77371383446,-9.34051704701
1.92751184536,-2.30285928057,-3.46381122963,-3.0289471079
2.07254120125,2.60853973059,-6.52390862479,1.49262283121
6.03757055714,7.30993874176,-5.98400601996,8.13419277033
2.40259991302,4.80133775294,-5.53410341512,8.59576270944
4.85762926891,0.562736764106,-8.06420081029,9.49733264856
12.6426586248,11.0041357753,-3.46429820545,13.7089025877
9.69768798068,11.3955347864,-3.66439560062,14.0704725268
9.19271733657,12.6169337976,-5.11449299579,15.8220424659
2.90774669246,5.62833280878,-3.25459039095,11.043612405
4.83277604834,1.35973181995,-2.96468778612,8.21518234412
9.69780540423,2.78113083112,-5.51478518128,9.11675228324
11.6228347601,5.8125298423,-4.44488257645,8.29832222235
9.01786411601,5.62392885346,-4.22497997162,9.48989216147
7.8228934719,0.965327864636,-6.25507736678,9.14146210058
11.5179228278,-0.273273124192,-7.08517476195,10.3330320397
10.3929521837,3.18812588697,-5.62527215711,11.7246019788
11.0279815396,13.4395248981,-1.40536955228,17.4861719179
6.12301089544,9.61092390931,1.39453305256,16.307741857
3.33804025133,5.78232292048,0.31443565739,10.2293117961
-2.13693039278,0.983721931654,-1.98566173777,2.95088173526
0.898098963109,0.995120942825,-2.07575913294,5.22245167438
5.643128319,4.366519954,-1.18585652811,7.84402161349
8.71815767488,5.56791896516,-1.82595392327,6.8855915526
3.56318703076,2.49931797633,-1.85605131843,5.22716149172
-0.521783613352,2.0607169875,-0.356148713599,4.55873143083
4.88324574254,8.76211599867,0.893753891232,8.01030136994
11.0582750984,11.9735150098,-0.286343503933,8.35187130906
6.66330445431,9.09491402101,0.833559100902,4.18344124817
-4.06166618979,0.916313032183,0.713461705738,-1.39498881272
-2.12663683391,1.08771204335,1.14336431057,-0.383418873602
-6.09160747803,-1.41088894548,0.943266915405,-3.50184893449
-3.64657812213,8.42051006569,3.06316952024,2.48972100463
2.21845123375,8.32190907686,3.28307212507,4.06129094374
-3.93651941037,-2.43669191196,2.5729747299,-3.34713911715
-1.85149005448,-3.4052929008,2.43287733474,-1.86556917803
-3.67646069859,-2.32389388962,1.50277993958,-1.45399923892
-4.2014313427,3.12750512154,2.66268254441,-1.67242929981
-4.52640198681,2.31890413271,1.27258514924,-4.16085936069
-9.43137263093,-2.07969685612,1.39248775408,-7.25928942158
-2.31634327504,3.71170215505,3.11239035891,3.20228051753
2.94868608085,8.53310116622,6.33229296375,10.2338504566
1.97371543673,4.87450017739,7.80219556858,0.675420395763
2.46874479262,3.92589918857,3.51209817342,-4.46300966512
-2.58622585149,0.0772981997288,0.202000778248,-5.34143972601
-0.191196495602,2.1986972109,3.42190338309,-1.2698697869
-4.57616713972,5.25009622207,2.95180598792,-0.168299847783
-0.121137783826,11.4314952332,4.49170859276,3.41327009133
6.85389157206,11.0828942444,4.63161119759,3.17484003044
3.26892092795,5.47429325558,4.89151380242,2.20640996956
2.99395028382,1.25569226676,4.56141640726,-0.622020091329
5.65897963972,7.12709127792,5.83131901209,1.05954984779
8.3040089956,6.46849028909,4.67122161693,2.2911197869
11.2190383515,5.58988930026,3.80112422176,3.26268972601
5.73406770738,-0.698711688565,2.4610268266,0.0542596651267
2.40909706327,-2.3573126774,4.36092943143,-0.224170395761
-2.69587358084,1.25408633377,4.13083203626,-0.0626004566457
-6.33084422495,-1.83451465506,0.830734641098,-3.61103051753
-4.28581486907,-6.63311564389,2.28063724593,-7.84946057842
2.62921448681,-9.52171663272,1.90053985077,-10.3478906393
-3.3757561573,-12.8803176216,-2.1895575444,-14.5163207002
-5.91072680141,-15.0389186104,-0.139654939565,-15.6247507611
3.03430255448,-7.77751959921,-0.539752334731,-12.173180822
-0.730668089636,-9.28612058803,-1.8798497299,-13.4216108829
-4.85563873374,-11.2847215769,0.270052874937,-11.0000409437
-1.36060937786,-10.4833225657,3.79995547978,-3.45847100462
1.64441997803,-1.71192355453,4.1098580846,0.0130989344907
-2.03055066609,1.29947545664,1.04976068944,0.134668873605
1.1344786898,0.220874467814,1.64966329428,-1.35376118728
-0.310491954318,-8.88772652102,0.689565899109,-9.99219124817
-1.44546259843,-10.0063275098,0.199468503943,-9.09062130905
-1.92043324254,-7.98492849868,-0.38062889122,-7.15905136994
4.18459611335,-3.30352948751,2.42927371361,-5.78748143083
0.909625469234,-2.75213047634,5.47917631844,-7.10591149171
-2.74534517487,-8.39073146517,3.19907892328,-5.1243415526
0.599684181012,-9.719332454,2.36898152812,-5.27277161349
-6.6352864631,-6.90793344282,2.20888413295,-8.69120167437
-4.57025710722,-4.52653443166,-0.741213262216,-5.25963173526
-0.895227751331,-3.70513542049,2.16868934262,-3.84806179614
-7.86019839544,-7.15373640932,3.50859194745,-6.67649185703
-7.87516903956,-9.53233739815,2.02849455229,-7.49492191792
-10.8401396837,-10.900938387,-1.10160284288,-11.5133519788
-5.66511032778,-10.3795393758,2.14829976196,-13.3117820397
-5.36008097189,-4.54814036464,0.828202366793,-7.63021210058
-13.015051616,-10.5067413535,-0.831895028376,-8.68864216146
-14.2200222601,-9.9553423423,0.708007576461,-10.0670722223
-5.46499290424,-4.30394333114,1.46791018129,-7.13550228324
-3.42996354835,2.95745568004,1.53781278613,-1.93393234412
-4.84493419246,0.47885469121,-0.922284609038,-1.70236240501
-6.03990483657,-7.51974629762,-2.3023820042,-4.49079246589
-8.06487548068,-8.76834728644,-2.19247939937,-5.35922252678
-6.91984612479,-6.84694827528,-2.62257679454,-6.57765258767
-4.17481676891,-3.8655492641,-1.7926741897,-3.81608264855
-5.55978741302,-2.43415025294,-1.54277158486,-1.95451270944
-2.59475805714,-4.21275124177,-1.72286898003,-4.25294277033
1.73027129875,-0.711352230603,-0.692966375198,1.96862716879
2.20530065464,6.39004678057,-0.363063770361,7.6801971079
10.2403300105,9.53144579174,-2.48316116553,6.92176704702
8.99535936641,8.40284480291,-3.7632585607,8.56333698613
4.4203887223,3.25424381408,-0.633355955859,4.14490692524
2.15541807819,-1.08435717475,-1.68345335103,1.60647686436
6.21044743407,3.86704183642,-2.19355074619,4.72804680347
4.18547678996,9.28844084759,-2.10364814136,9.46961674258
8.62050614585,7.60983985876,-1.68374553652,9.2111866817
4.49553550174,5.47123886993,-2.21384293169,6.89275662081
-0.0994351423797,4.06263788111,-2.73394032686,5.06432655992
0.335594213509,9.84403689227,-2.19403772202,8.15589649904
-0.589376430602,11.6154359034,-3.38413511718,11.7874664382
6.72565292528,5.19683491461,-5.45423251235,11.0790363773
4.19068228117,4.56823392578,-4.07432990752,9.77060631638
4.08571163706,2.18963293695,-2.39442730268,8.62217625549
4.34074099294,8.88103194812,-2.66452469785,12.1137461946
2.09577034883,9.08243095929,-4.98462209302,11.5653161337
-7.16551962208,-6.65109011628,-1.45418604652,-12.2840697674
-7.03167900795,-14.6685938645,-4.35532337256,-12.4760160113
-8.42783839383,-17.7360976126,-5.1964606986,-13.4279622551
-15.2139977797,-11.0636013608,-5.10759802464,-12.9299084989
-5.31015716557,-9.48110510895,-4.17873535068,-14.1218547427
-5.30631655145,-9.14860885713,-0.0398726767162,-9.89380098654
-5.47247593731,-12.1761126053,-2.11101000275,-11.5357472304
-7.76863532319,-18.2136163535,-3.44214732879,-15.0376934742
-6.82479470906,-13.1711201016,-1.72328465483,-12.389639718
-5.25095409493,-6.3186238498,0.0755780191284,-9.78158596181
-3.05711348081,0.283872402033,0.954440693087,-5.95353220563
-2.38327286668,-6.04363134613,-1.45669663295,-7.48547844945
-7.68943225255,-8.75113509431,-2.78783395899,-5.37742469328
0.0744083615718,-0.178638842473,-2.10897128503,-3.8293709371
1.16824897571,-0.856142590645,-0.900108611066,-6.43131718092
-3.78791041017,-4.77364633881,-2.25124593711,-5.66326342473
-7.24406979605,-10.421150087,-3.47238326315,-7.93520966855
-6.81022918192,-12.6386538352,1.31647941082,-11.8171559124
0.353611432212,-0.91615758332,3.48534208478,-3.14910215619
-4.58254795367,0.686338668515,2.66420475874,-3.90104840001
-2.62870733954,0.238834920339,1.4230674327,-4.61299464383
1.51513327459,0.471331172172,-0.58806989334,1.34505911235
8.95897388872,-1.43617257599,2.28079278062,7.05311286853
-2.85718549715,-8.57367632417,2.88965545458,-4.62883337529
5.53665511697,3.51881992767,-1.55148187146,1.65922038089
2.0704957311,0.351316179498,-0.842619197498,6.85727413707
-2.65566365478,-2.37618756867,-3.97375652354,3.87532789325
3.80817695936,-1.00369131684,-5.32489384957,4.12338164943
8.28201757348,6.42880493499,-1.67603117562,7.78143540561
8.60585818761,12.1713011868,-3.41716850166,8.34948916179
12.2596988017,15.4937974387,-3.38830582769,16.407542918
18.5235394159,13.2462936905,-1.11944315373,18.2855966741
18.14738003,10.4287899423,0.249419520231,18.0536504303
15.7612206441,14.8212861941,0.318282194188,16.0317041865
11.5450612582,16.043782446,-0.832855131852,13.3797579427
8.55890187237,13.8062786978,-0.713992457888,10.1878116989
1.6127424865,9.74877494964,-2.76512978393,8.72586545505
4.23658310062,5.76127120147,-1.95626710997,6.92391921123
3.17042371476,13.4637674533,-1.437404436,10.4419729674
6.30426432888,6.55626370513,-2.13854176204,7.99002672359
5.77810494301,8.24875995696,1.15032091192,8.58808047977
4.40194555714,9.1712562088,1.21918358588,9.17613423595
6.77578617126,3.13375246062,-0.201953740161,4.73418799213
9.85962678539,8.15624871246,-0.103091066201,5.77224174831
5.24346739952,10.5387449643,-0.684228392241,10.9902955045
6.63730801365,9.41124121612,-0.875365718279,9.18834926067
10.6611486278,4.77373746796,-2.94650304432,9.19640301685
5.8249892419,5.28623371978,0.0323596296439,12.534456773
4.92882985603,9.16872997161,4.5512223036,12.7225105292
4.94267047015,14.7512262234,6.28008497756,12.3805642854
1.70651108428,11.5637224753,4.34894765152,10.3486180416
-1.03964830159,7.2462187271,2.51781032549,7.49667179775
-7.50580768746,2.98871497894,0.196672999449,3.64472555393
-0.571967073338,0.701211230764,-0.48446432659,4.48277931011
-8.67812645921,5.5737074826,1.15439834737,5.27083306629
-9.88428584508,5.85620373442,2.09326102133,3.53888682247
-2.77044523096,-7.88130001374,-2.05787630471,-4.16305942135
-2.64660461683,-2.3188037619,-1.37901363075,0.694994334832
-6.9727640027,3.90369248992,1.86984904321,0.863048091011
-3.16892338858,2.89618874175,3.21871171717,0.241101847192
-0.145082774448,0.868684993584,2.12757439114,-0.620844396628
2.29875783968,0.0211812454218,3.16643706509,1.82720935955
-4.28740154619,5.86367749725,6.83529973906,6.03526311573
-1.17356093207,7.48617374908,4.72416241302,5.24331687191
-3.04972031794,5.5786700009,2.44302508698,2.21137062809
-2.30587970381,2.80116625274,1.13188776094,-0.0105756157263
-6.50203908968,2.86366250457,1.9407504349,1.98747814045
-3.62819847556,-0.473841243598,2.21961310886,1.32553189663
-0.584357861429,2.44865500824,3.02847578282,0.863585652813
-3.6405172473,1.66115126006,6.11733845678,0.651639408992
-8.61667663318,-2.9963524881,5.30620113074,-3.14030683483
-13.082836019,-11.4538562363,4.92506380471,-11.1122530786
-9.02899540492,-11.0813599844,3.41392647866,-8.55419932247
-4.10515479079,-4.80886373261,3.15278915263,-2.95614556628
2.15868582333,0.523632519224,3.31165182659,-0.288091810105
3.17252643746,1.40612877105,5.24051450055,-3.25003805393
2.32636705159,-2.93137497712,4.15937717451,-2.39198429774
0.910207665715,-6.29887872529,1.58823984847,-0.933930541565
3.64404827984,-1.09638247346,4.21710252243,0.354123214614
-1.85211110603,2.63611377838,5.3559651964,-1.8778230292
4.23172950809,-3.77138996979,2.19482787035,-3.89976927302
4.79557012223,-7.10889371796,1.08369054431,-4.00171551684
5.11941073636,-5.68639746613,1.65255321827,-1.44366176066
2.11325135048,-2.8039012143,-1.09858410777,-1.83560800449
3.25709196461,1.20859503753,-1.2897214338,-1.1575542483
0.580932578734,-5.32890871064,-1.84085875984,-6.37950049212
-5.24522680714,-14.2264124588,-0.811996085882,-10.3514467359
-9.28138619301,-12.113916207,-0.803133411922,-7.14339297976
-4.46754557889,-2.46141995515,0.615729262041,-2.46533922358
0.116295035245,-4.14892370332,-0.745408064002,-6.2072854674
-2.28986435063,0.443572548524,-0.426545390037,-0.969231711222
-4.1560237365,1.11606880035,3.78231728392,2.85882204496
-1.56218312238,-0.0814349478169,4.51117995788,-0.993124198863
5.33165749175,0.851061304013,4.13004263184,1.27492955732
5.40549810587,9.24355755584,4.3889053058,7.1129833135
8.02933872001,11.0260538077,5.03776797977,6.99103706968
5.35317933413,11.0585500595,6.83663065373,6.99909082586
7.18701994827,5.63104631133,4.91549332769,4.34714458204
6.30086056239,11.2235425632,5.66435600165,5.33519833822
4.11470117651,8.67603881499,4.64321867561,2.1032520944
1.66854179064,8.12853506683,3.01208134957,1.94130585058
-0.357617595233,-0.798968681345,2.04094402353,-3.15064039324
-1.27377698111,-0.806472429511,0.349806697493,-3.61258663706
2.20006363303,-3.63397617768,-4.45133062854,-7.17453288088
-6.82609575285,1.48852007415,0.497532045414,-7.2964791247
-9.43225513872,-2.81898367401,0.496394719376,-12.0484253685
-11.7284145246,-10.8064874222,-4.65474260666,-14.9903716123
-10.3545739105,-15.0139911704,-7.1558799327,-15.8323178562
-4.96073329634,-4.87149491852,-5.11701725874,-11.2442641
1.57310731779,0.241001333306,-4.31815458478,-4.8162103438
7.45694793191,-3.63650241486,-4.42929191082,-3.26815658762
2.66078854604,-9.01400616303,-4.29042923686,-6.43010283144
4.40462916017,-6.6915099112,-4.5915665629,-2.20204907526
5.28846977429,0.14098634063,-4.27270388894,2.90600468092
8.26231038843,6.32348259247,-1.69384121498,7.2040584371
4.31615100255,1.08597884429,-1.75497854102,2.83211219328
6.71999161668,-7.08152490387,-2.66611586705,0.750165949461
3.6838322308,-4.57902865204,-3.26725319309,1.75821970564
4.31767284493,-1.86653240021,-1.40839051913,-1.38372653818
-0.908486540939,3.31596385162,-0.999527845172,-1.505672782
-1.14464592681,-4.45153989655,-2.80066517121,-4.57761902582
-3.06080531269,-7.73904364472,-2.28180249725,-3.94956526964
-5.91696469856,-6.09654739289,-3.54293982329,-1.37151151346
-9.95312408444,2.54594885894,-3.09407714933,3.13654224272
-5.5292834703,0.778445110773,-5.38521447537,4.0845959989
-2.47544285618,2.98094136261,-3.03635180141,4.18264975508
-6.69160224206,-5.05656238557,-4.92748912745,1.80070351126
-5.92776162792,-7.92406613373,-6.34862645348,-1.79124273256
-4.18003361343,-1.95873949578,3.63695798318,-4.37142857142
-4.98632391137,0.755087853344,1.46118869365,-4.28328495034
-6.2126142093,4.75891520247,1.24541940412,-0.045141329254
-3.06890450724,-3.63725744841,-2.27034988542,-2.92699770817
-6.42519480518,-3.7334300993,-2.12611917495,-1.55885408708
-6.89148510312,0.340397249827,-0.251888464485,-0.380710465999
-1.68777540106,4.19422459895,-0.917657754017,0.887433155085
-0.794065698996,4.26805194807,-2.37342704355,3.99557677617
-1.00035599693,-4.88812070281,-4.10919633309,1.69372039725
1.27335370513,-1.68429335369,-0.604965622621,0.891864018338
1.87706340719,-1.47046600457,0.189265087844,0.460007639424
8.47077310926,2.58336134456,1.14349579831,-0.321848739492
6.41448281132,-1.16281130633,-0.632273491221,-0.653705118406
3.45819251338,-9.57898395721,-4.50804278076,-1.44556149732
6.54190221544,-11.2751566081,-3.82381207029,-5.66741787624
7.4856119175,-3.60132925896,-1.59958135982,-1.55927425515
-0.390678380434,1.06249809016,-2.05535064936,0.658869365931
-0.276968678372,0.956325439278,-2.09111993889,0.627012987015
4.52674102369,-0.709847211605,1.30311077158,0.5651566081
3.92045072575,-0.926019862476,4.68734148204,2.26330022919
6.33416042781,6.72780748664,4.99157219251,5.12144385027
6.18787012987,12.7716348358,5.40580290297,8.96958747135
6.08157983194,8.46546218488,5.47003361344,7.08773109244
2.945289534,9.339289534,6.41426432391,5.67587471352
4.14899923606,4.52311688313,3.45849503437,4.62401833461
4.08270893812,5.13694423225,1.05272574484,6.70216195569
-2.37358135981,11.0707715814,2.9469564553,4.96030557678
-1.54987165775,0.194598930488,1.17118716578,-2.04155080214
-5.17616195569,-6.90157372039,-1.49458212376,-6.20340718105
-4.80245225363,-6.09774637127,-0.700351413296,-6.06526355997
-4.32874255157,-5.61391902215,-1.62612070283,-4.14711993888
-6.9550328495,-2.90009167303,-3.25188999236,-2.9389763178
-7.08132314745,-4.65626432391,-5.8476592819,-4.75083269671
-5.56761344538,-6.35243697478,-4.29342857143,-5.82268907563
