6.71014534884,-0.855483284875,0.0238553779054,4.30703851744
10.1780933552,0.962158430237,0.442224781402,6.90719096204
10.7860413615,1.15980014536,-0.3594058151,5.42734340665
8.3039893678,1.26744186047,0.728963588398,6.01749585126
6.18193737411,-1.93491642441,-0.342667008104,3.37764829587
7.81988538043,1.9327252907,-3.01429760461,3.53780074047
5.49783338675,-3.00963299418,-3.68592820111,-0.302046814921
12.2457813931,-2.45199127907,-2.45755879761,0.758105629689
9.34372939938,-4.01434956395,-3.59918939411,-1.3617419257
10.1516774057,-5.62670784883,-2.84081999062,-2.2815894811
7.44962541202,-1.80906613372,-2.82245058712,-1.90143703649
2.46757341834,-4.7614244186,-4.12408118362,-3.32128459188
-0.994478575343,-2.05378270349,-2.36571178012,-3.50113214727
1.76346943097,3.26385901163,1.83265762337,2.78902029733
4.33141743729,4.24150072675,3.71102702687,4.01917274194
7.43936544361,5.60914244187,3.54939643037,6.22932518655
14.8473134499,6.89678415698,2.24776583387,5.85947763115
14.8252614562,5.8244258721,-0.0738647626367,2.97963007576
15.7032094626,1.69206758721,-0.305495359139,1.27978252037
7.74115746888,1.30970930233,-0.487125955641,2.17993496498
11.4591054752,3.64735101745,3.49124344786,4.95008740958
-6.82294651849,3.96499273256,4.15961285135,0.690239854192
13.3650014878,8.36263444768,4.75798225485,5.9203922988
7.22294949415,8.65027616279,5.42635165835,4.4005447434
-1.37910249954,5.02791787791,5.35472106185,0.540697188013
-1.85115449322,3.37555959303,3.33309046534,-3.11915036738
-6.4532064869,2.92320130814,3.24145986884,-4.72899792277
-5.10525848058,-1.96915697674,-0.78017072766,-7.67884547817
4.08268952573,-1.23151526162,-2.30180132416,-2.48869303356
-12.6093624679,-3.15387354651,0.616568079335,-5.18854058895
-5.28141446163,-1.10623183139,0.214937482832,-1.51838814434
1.58653354469,0.261409883726,0.70330688633,-0.958235699736
-6.615518449,-2.16094840116,-0.0883237101725,-3.76808325513
-9.46757044268,-6.18330668605,-1.35995430667,-6.76793081052
-8.01962243636,-10.2056649709,-2.68158490318,-8.45777836592
-13.33167443,-7.21802325581,-1.39321549968,-7.73762592131
-7.49372642373,-5.83038154069,-1.99484609618,-3.3574734767
0.444221582591,-0.312739825582,1.10352330732,3.21267896791
-8.54783041109,-1.42509811046,-1.71810728919,-1.62716858749
-11.7798824048,-5.43745639535,-4.57973788569,-1.28701614288
4.69806560154,-4.93981468023,-2.84136848219,-1.24686369827
-13.2739863921,-5.99217296511,-2.39299907869,-5.84671125366
-10.5460383858,-5.46453125,-2.2446296752,-7.53655880906
-5.91809037951,-0.76688953488,-0.436260271699,-3.06640636445
-18.4101423732,-8.61924781977,-2.6078908682,-9.29625391984
-17.0221943669,-6.18160610465,-2.6795214647,-7.19610147523
-9.12424636055,-4.86396438953,-3.04115206121,-4.01594903063
-18.3962983542,-5.26632267442,-0.45278265771,-6.80579658602
-9.51835034792,-9.6486809593,-0.454413254211,-9.44564414141
-7.1704023416,-12.4910392442,-3.40604385071,-11.6954916968
-11.9324543353,-9.20339752907,-4.52767444722,-9.4553392522
2.51549367104,-5.94575581395,-2.37930504372,-2.86518680759
-4.47655832265,-6.36811409883,-1.60093564022,-6.03503436298
-7.82861031633,-1.46047238372,0.117433763276,-1.09488191837
0.199337689988,0.667169331398,0.045803166774,4.70527052623
-9.81271430369,-2.30518895349,1.73417257027,-0.92457702916
-7.55476629738,0.41245276163,2.69254197377,-0.434424584553
-6.18681829106,-3.87990552325,-0.589088622733,-1.52427213995
-4.59887028474,-6.72226380814,-1.65071921924,-4.29411969534
-10.9009222784,-3.68462209302,-0.802349815738,-2.52396725073
-16.6829742721,-2.56698037791,0.26601958776,-3.70381480612
-5.08502626579,1.70066133721,1.06438899126,2.62633763848
-3.93707825947,4.67830305233,0.882758394754,3.87649008309
-0.269130253153,9.88594476744,3.43112779825,6.8766425277
-2.84118224684,4.29358648256,1.70949720175,5.33679497231
1.45676575948,5.96122819767,0.117866605247,6.76694741691
1.9947137658,3.41886991279,-1.04376399126,4.84709986152
-13.3573382279,7.10651162791,1.31460541224,5.63725230613
-2.08939022156,8.19415334303,2.25297481574,6.55740475074
8.95855778475,13.3117950581,4.33134421924,12.5475571953
10.0565057911,13.0894367733,5.30971362274,12.81770964
-2.70554620261,11.8570784884,3.20808302623,8.99786208456
-1.9475981963,7.65472020349,2.37645242973,7.65801452916
6.17034981002,5.77236191861,2.01482183323,8.86816697377
-6.90170218366,5.44000363372,2.63319123673,4.80831941838
2.77624582266,9.11764534884,1.94156064022,5.21847186299
-0.745806171024,4.98528706395,0.839930043721,2.53862430759
-6.80785816471,7.15292877907,0.368299447218,3.8787767522
-10.5799101584,1.94057049418,-1.18333114928,0.778929196809
-7.24196215207,1.7382122093,0.895038254213,-0.940918358585
-3.40401414576,5.64585392442,1.94340765771,-0.0707659139771
3.46393386056,5.33349563953,1.94177706121,0.82938653063
-1.80811813312,8.44113735465,4.82014646471,1.38953897524
-1.3601701268,7.96877906976,4.0985158682,2.52969141985
5.84777787951,6.46642078488,2.9768852717,3.64984386445
1.23572588583,6.8040625,2.7052546752,1.52999630906
2.07367389215,1.37170421511,1.5236240787,1.07014875367
7.59162189847,3.97934593023,0.821993482195,1.09030119828
0.619569904782,4.36698764535,1.51036288569,0.720453642882
2.9275179111,2.50462936046,0.128732289189,2.08060608749
10.8654659174,-2.21772892442,-1.08289830731,-2.4692414679
1.37341392373,-1.9900872093,-0.214528903815,-2.6890890233
2.91136193006,0.887554505811,-0.0161595003183,0.951063421311
0.929309936371,0.79519622093,0.332209903179,1.02121586592
7.45725794269,-1.92716206396,0.310579306677,0.201368310525
9.53520594901,-1.50952034884,-0.231051289825,0.291520755132
5.25315395532,-0.521878633725,-0.772681886328,0.0516731997413
5.03110196164,-2.83423691861,-3.74431248283,-4.41817435565
-0.0609500320425,-4.66659520349,-4.59594307933,-6.98802191105
-3.12300202572,-8.08895348838,-6.05757367583,-8.32786946644
0.674945980594,-4.98131177326,-2.99920427234,-5.41771702183
-1.01710601309,-5.47367005815,-2.89083486884,-6.03756457722
7.55084199323,-4.89602834302,-4.43246546534,-1.85741213262
-0.791210000454,-4.28838662791,-3.67409606185,-2.20725968801
-1.12326199414,-3.35074491279,-3.18572665835,-0.777107243402
2.63468601218,-3.40310319768,-1.37735725485,-2.75695479879
-2.7073659815,2.07453851744,0.941012148648,-0.526802354187
-0.0894179751849,6.47218023255,2.27938155215,4.98335009042
5.97853003113,6.46982194767,5.28775095564,9.20350253503
1.59647803745,-0.12253633721,5.42612035914,1.16365497963
0.634426043769,-0.704894622097,4.23448976264,-1.47619257576
5.22237405008,-2.87725290698,2.86285916614,0.36395986885
-0.629677943594,-2.62961119187,-0.468771430366,-1.73588768654
8.39827006272,-2.79196947675,-2.64040202687,-0.615735241936
8.96621806904,-4.69432776163,-0.852032623371,-2.15558279733
-8.62583392464,-5.91668604652,0.196336780126,-4.62543035272
1.95211408167,-5.9490443314,-2.15529381638,-3.50527790811
-1.23993791201,-6.35140261628,-2.94692441288,-4.04512546351
7.83801009431,-2.59376090117,-1.62855500938,0.5250269811
8.70595810063,-5.36611918605,-2.70018560588,-0.144820574291
-0.456093893055,-3.26847747093,-1.90181620239,0.235331870317
0.261854113262,0.799164244185,-1.25344679889,1.55548431492
2.49980211958,2.3168059593,0.0149226046087,3.34563675953
5.9277501259,-0.725552325584,0.833292008107,1.47578920414
5.14569813222,-2.37791061047,-0.438338588396,-0.0140583512548
2.31364613853,-3.37026889535,-0.889969184897,-2.78390590665
0.661594144847,1.25737281976,-0.0215997814012,-0.843753462041
1.19954215117,6.30501453488,1.2067696221,6.80639898257
-2.49567587208,-1.25719476744,1.89388444767,1.64225654069
4.19769353142,2.77469388048,3.24108705479,6.46678793375
7.78106293492,1.91658252839,0.678289661918,4.32131932681
0.114432338414,-1.7015288237,-1.52450773096,0.925850719874
1.61780174191,-5.42964017579,-3.44730512384,-1.39961788707
6.80117114541,-4.16775152788,-1.07010251671,0.614913505995
4.51454054891,-2.59586287996,0.217100090411,2.64944489905
9.3079099524,-2.65397423205,-2.50569730247,1.24397629211
-3.5587206441,-2.18208558414,-1.17849469534,-2.16149231483
-3.9253512406,-0.520196936224,2.41870791178,0.433039078234
1.3880181629,-3.97830828831,0.415910518904,0.677570471295
16.1813875664,-2.6064196404,0.333113126027,1.95210186435
-3.47524303011,-3.72453099249,-0.66968426685,-2.07336674259
-2.17187362661,-2.08264234458,-0.882481659727,-0.658835349526
-5.34850422312,-6.30075369666,-2.8452790526,-5.26430395647
-8.31513481962,-5.82886504875,-0.80807644548,-2.93977256341
-4.79176541612,-3.55697640084,-0.710873838357,-2.91524117035
0.811603987378,-2.12508775293,-0.973671231233,0.0292902227138
12.1149733909,4.81680089499,1.98353137589,6.62382161577
-0.101657205629,4.8186895429,-0.509266016987,6.79835300883
1.92171219787,2.46057819081,0.227936590136,6.38288440189
4.26508160137,5.84246683873,1.62513919726,6.57741579495
2.64845100486,7.05435548663,1.00234180438,5.64194718801
7.62182040836,5.38624413455,1.00954441151,3.78647858107
-0.41481018814,9.29813278246,2.62674701863,6.18100997413
10.2585592154,10.4300214304,2.49394962575,10.1155413672
-1.36807138114,4.08191007829,-1.18884776712,-0.0799272397489
-4.39470197765,7.3137987262,2.03835484,1.61460415331
-5.14133257415,6.93568737411,1.35555744712,3.82913554637
10.2320368293,8.28757602202,2.11276005425,7.36366693943
8.58540623284,6.25946466994,2.20996266137,7.87819833249
-0.741224363661,7.07135331785,1.12716526849,7.87272972555
5.73214503984,7.32324196576,2.33436787562,7.29726111861
6.27551444334,9.24513061367,3.01157048274,13.3317925117
8.72888384683,4.09701926159,-1.76122691014,7.94632390473
11.7822532503,3.3789079095,-1.91402430302,7.20085529779
1.96562265382,2.49079655741,-0.346821695891,7.58538669085
8.63899205732,-1.16731479468,-3.21961908877,1.78991808391
3.33236146082,-1.24542614676,-3.70241648164,-0.265550523029
6.64573086432,0.456462501148,-3.25521387452,3.17898087003
7.50910026782,0.418351149059,-1.0080112674,5.41351226309
1.00246967132,-0.149760203029,0.249191339724,0.988043656151
-10.0241609252,-2.35787155512,-0.553606053151,-2.69742495079
-2.91079152169,-0.115982907202,-1.35640344603,-0.712893557729
5.7825778818,2.83590574071,-2.50920083891,-1.01836216467
-3.3740527147,-2.31220561138,-3.22199823178,-6.63383077161
-10.6006833112,-5.93031696347,-3.56479562466,-7.56929937855
-11.2373139077,-5.78842831555,-1.21759301754,-8.71476798549
-5.4539445042,-6.09653966764,-0.630390410412,-8.62023659243
-9.35057510071,-7.52465101973,-2.90318780329,-12.7757051994
-14.4572056972,-1.70276237182,-0.815985196165,-9.81117380631
-6.35383629371,0.0491262760952,0.261217410958,-4.32664241325
-6.41046689022,1.57101492401,2.29842001808,1.45788897981
0.40290251328,8.48290357192,2.4456226252,5.03242037287
6.65627191678,3.48479221984,-0.0971747676731,1.14695176593
-6.23035867972,2.46668086775,1.89002783945,1.34148315899
-6.28698927622,0.398569515655,0.407230446574,-1.94398544795
-3.83361987273,-3.35954183643,-2.0955669463,-4.52945405489
-3.80025046923,-3.56765318852,-3.73836433918,-8.48492266183
-2.30688106574,-2.6057645406,-3.20116173206,-7.84039126877
3.75648833776,-2.08387589269,1.09604087507,-2.94585987571
-1.79014225874,-4.96198724478,0.36324348219,-8.33132848265
-2.60677285524,-1.71009859687,1.78044608931,-5.71679708959
-5.34340345174,-3.15820994896,0.267648696436,-6.30226569653
1.90996595175,-0.756321301043,1.07485130356,-4.77773430347
-8.68666464475,-5.87443265313,-0.237946089316,-8.47320291041
-10.7532952413,-9.69254400522,-0.900743482194,-10.2986715174
-8.27992583776,-6.84065535731,2.16645912493,-10.3741401243
-1.29655643426,-4.82876670939,2.64366173205,-8.44960873123
-6.62318703076,-4.23687806148,1.75086433918,-7.68507733817
-4.23981762727,-3.44498941357,3.6880669463,-6.99054594511
2.58355177624,0.156899234342,4.71526955342,-2.47601455205
-4.57307882027,-3.21121211775,1.84247216055,-6.10148315899
-0.339709416774,-0.0293234698293,5.28967476767,-1.20695176593
0.993659986725,0.112565178082,5.47687737479,-1.32242037287
-1.58297060978,-1.005546174,3.37407998192,-1.22788897981
-1.65960120628,-3.20365752609,1.44128258904,-1.54335758675
0.613768197218,-1.41176887818,-0.431514803837,-1.55882619369
-4.60286239929,-2.20988023027,-1.58431219671,-5.18429480063
1.31050700421,-1.84799158236,-0.557109589592,-3.63976340757
-0.416123592291,-6.44610293444,-2.01990698247,-7.75523201451
-4.25275418879,-4.38421428653,0.0872956246567,-4.20070062145
-8.3993847853,-1.65232563862,-0.55550176822,-3.61616922839
-8.1160153818,-0.100436990706,-2.5382991611,-4.38163783533
-7.7226459783,1.49145165721,-1.97109655397,-3.32710644227
-6.8792765748,-1.42665969488,1.11610605315,-5.00257504921
-6.66590717131,-3.23477104697,-0.376691339727,-7.75804365615
-8.28253776781,-1.10288239906,0.970511267395,-7.24351226309
1.61083163568,2.45900624886,0.667713874518,-1.80898087004
-3.94579896082,2.31089489677,-0.895083518359,0.825550523026
-3.57242955732,2.40278354468,-0.687880911235,3.24008191608
-5.63906015382,1.34467219259,0.0293216958889,1.43461330915
-8.61569075032,-1.26343915949,-0.36347569699,1.8791447022
-11.0223213468,2.73844948842,1.61372691013,2.19367609527
-4.83895194333,-0.62966186367,1.28092951726,-3.22179251167
-2.34558253983,-1.37777321576,0.708132124382,-3.32726111861
-4.92221313633,-2.02588456785,0.735334731504,-1.52272972556
-1.01884373284,-2.62399591993,-1.76746266137,-2.3981983325
-3.37547432934,0.357892727978,-2.20026005425,-1.90366693944
9.37789507416,0.00978137589118,-3.36305744712,-1.65913554638
0.611264477655,-4.3483299762,-4.69585484,-2.59460415332
1.22463388115,-4.73644132828,-1.40865223288,-1.68007276026
6.53800328465,-0.264552680372,-1.08144962576,-1.7455413672
4.76137268815,-5.95266403246,-3.13424701863,-5.79100997413
-1.34525790836,-4.92077538454,-2.45704441151,-4.38647858107
-3.41188850486,-5.87888673663,-2.69984180439,-4.20194718802
1.96148089864,-5.71699808872,-4.08263919726,-2.25741579495
3.82485030214,-2.33510944081,-2.90543659014,0.307115598105
4.48821970563,0.866779207103,0.891766016985,4.35164699116
3.81158910913,3.13866785502,-0.041031375893,6.12617838422
-0.0150414873715,3.55055650293,0.54617123123,6.48070977728
8.79832791613,2.07244515084,2.21337383835,4.77524117034
3.76169731962,2.79433379875,3.24057644548,2.7897725634
-3.08493327688,3.58622244667,2.0677790526,3.59430395646
-7.72156387338,1.22811109458,-0.235018340278,0.198835349524
-2.40819446988,1.45999974249,0.152184266846,-1.00663325742
2.98517493361,0.1018883904,3.01938687397,-1.01210186436
-4.48145566289,-0.636222961686,3.40658948109,-1.5275704713
-3.39808625939,1.67566568623,1.73379208822,2.85696092176
4.8452831441,5.34755433414,1.01099469534,4.82149231482
1.6386525476,7.18944298205,2.12819730246,7.54602370788
9.3820219511,6.63133162996,1.26539990959,9.94055510094
8.2153913546,9.21322027788,2.34260251671,11.845086494
14.7987607581,7.52510892579,2.27980512383,12.8496178871
16.4221301616,6.7269975737,0.207007730956,15.2841492801
13.2354995651,1.69888622161,-1.28578966192,10.6786806732
4.03886896859,-1.12922513047,-3.4885870548,8.66321206624
14.8322383721,-2.30733648256,-5.20138444768,5.3577434593
7.43142078489,3.00809956396,-1.4748255814,7.00250726744
-4.60241433574,2.03546462988,-1.54091592657,4.8990868774
-3.17624945637,-2.34717030419,-0.477006271745,2.03566648736
-7.41008457699,-1.70980523828,1.78690338308,1.46224609733
-5.06391969762,2.70755982765,5.3408130379,3.48882570729
-13.0977548182,1.04492489357,2.62472269273,-2.37459468275
-7.27158993887,-0.337710040505,1.80863234755,-3.89801507279
-3.6954250595,3.08965502541,4.74254200238,0.748564537171
0.320739819865,2.21702009134,2.7564516572,-1.20485585287
-1.70309530076,5.00438515726,5.29036131203,2.07172375709
5.74306957861,9.64175022318,4.64427096685,6.46830336706
8.76923445798,11.2491152891,3.33818062168,8.47488297702
14.0653993374,12.066480355,3.03209027651,12.441462587
6.84156421673,12.9538454209,2.61599993133,10.6480421969
-0.0122709039024,12.7912104869,3.19990958616,7.2446218069
6.78389397547,12.4685755528,3.29381924098,5.92120141686
4.92005885484,11.6159406187,3.27772889581,5.95778102683
1.58622373421,6.66330568463,1.94163855063,3.44436063679
-5.26761138641,7.78067075056,3.31554820546,3.19094024675
4.65855349296,2.78803581648,0.529457860282,0.507519856712
11.6647183723,1.3754008824,0.333367515106,2.68409946667
4.5308832517,2.82276594832,0.727277169932,2.30067907663
1.92704813107,-1.38986898576,-2.19881317524,-1.8427413134
-9.89678698956,-4.88250391983,-0.244903520419,-4.70616170344
-12.1206221102,-6.43513885391,1.40900613441,-7.70958209348
-20.9944572308,-9.83777378799,0.882915789232,-11.3630024835
-23.4882923514,-9.78040872207,-0.453174555942,-12.1964228736
-13.3021274721,-7.77304365615,0.720735098881,-9.1598432636
-7.6759625927,-7.26567859023,1.35464475371,-4.90326365363
-6.57979771333,-6.19831352431,0.668554408534,-2.17668404367
-5.60363283396,-2.11094845838,-0.577535936642,1.25989556629
-5.67746795459,2.59641660754,1.19637371818,4.01647517625
-0.031303075215,2.47378167346,2.54028337301,5.55305478621
-2.40513819584,1.73114673938,2.66419302783,5.58963439617
-1.64897331647,2.36851180531,2.59810268266,3.64621400613
1.5871915629,0.0658768712274,1.64201233748,1.2027936161
7.34335644227,3.07324193715,0.225921992309,3.75937322606
-5.40047867836,0.300607003071,-2.41016835287,-0.91404716398
0.245686201019,-0.352027931007,-1.10625869804,-1.47746755402
2.43185108039,-0.564662865087,-1.86234904322,-1.17088794406
3.71801595976,-6.42729779916,-4.39843938839,-9.0943083341
7.49418083913,-11.0399327332,-6.07452973357,-12.2077287241
-0.669654281493,-15.5825676673,-7.92062007874,-18.7411491142
-4.81348940212,-15.6152026014,-7.59671042392,-16.2045695042
1.86267547725,-11.8178375355,-8.68280076909,-11.9579898942
12.1188403566,-7.71047246955,-7.28889111427,-7.23141028429
9.47500523599,-3.49310740363,-2.79498145944,-4.80483067432
21.0411701154,0.544257662288,-0.951071804615,4.40174893564
16.9473349947,3.02162272821,-1.30716214979,5.6483285456
17.9734998741,5.24898779413,0.0167475050348,4.32490815556
22.2296647535,4.81635286005,0.58065715986,5.14148776552
16.2158296328,2.57371792597,-1.59543318531,3.34806737548
14.3719945122,2.4310829919,-2.06152353049,5.99464698544
16.0881593916,1.86844805782,-0.707613875662,7.42122659541
12.444324271,2.28581312374,-0.953704220839,4.64780620537
9.46048915033,-2.45682181033,-1.76979456601,-1.62561418467
-0.203345970291,-2.55945674441,-1.20588491119,-1.93903457471
-6.28718109092,-10.6320916785,-3.70197525636,-10.0424549647
-10.5810162115,-11.4847266126,-1.70806560154,-11.4958753548
-7.23485133218,-11.5873615466,-0.914155946713,-11.3492957448
-13.7886864528,-11.9699964807,-5.96024629189,-11.4027161349
-17.9525215734,-11.8226314148,-4.54633663706,-11.3661365249
-19.2163566941,-5.48526634888,-0.942426982238,-6.62955691494
-15.2601918147,-6.60790128296,-0.758517327411,-2.48297730498
-12.5440269353,1.05946378296,0.0153923274138,1.13360230498
0.862137944056,2.54682884888,-1.79069801776,4.63018191494
-6.56169717657,1.80419391481,-1.53678836294,-0.873238475093
-8.7655322972,2.37155898073,0.587121291888,-1.03665886513
1.98063258217,2.18892404665,0.821030946716,3.84992074483
-10.8532025385,1.19628911257,-0.225059398461,-1.74349964521
-12.0170376591,-1.79634582151,-2.72114974363,-4.74692003525
-6.19087277972,1.79101924441,-0.367240088812,2.64965957471
-0.144707900345,-0.901615689661,-0.803330433984,2.52623918468
-4.56854302097,-1.97425062374,-2.00942077916,1.36281879464
-3.4223781416,-4.28688555782,-4.94551112434,1.4393984046
-5.07621326223,-5.5195204919,-5.39160146951,-3.79402198544
-0.320048382859,1.77784457402,-1.51769181468,4.42255762452
-1.31388350349,-4.80479036006,-3.45378215986,1.82913723448
4.09228137588,-5.38742529414,-3.17987250504,-1.20428315555
5.11844625526,-2.38006022821,-1.89596285021,-0.107703545593
1.50461113463,-1.89269516229,-1.80205319538,1.57887606437
6.620776014,0.694669903634,-0.318143540559,1.28545567433
7.84694089337,0.172034969557,-1.45423388573,2.08203528429
11.9731057727,-2.89059996452,0.319675769091,2.96861489425
4.80927065211,-2.8532348986,0.903585423917,-1.62480549579
7.78543553148,-1.29586983268,-0.24250492126,3.78177411418
11.3516004109,-0.148504766759,0.431404733567,3.81835372414
18.1377652902,3.57886029916,1.42531438839,9.1549333341
5.2139301696,3.75622536508,0.979224043216,6.02151294406
14.190095049,6.943590431,0.963133698042,6.54809255402
9.87625992834,2.69095549693,-2.27295664713,2.38467216399
2.51242480772,2.90832056285,0.780953007692,2.06125177395
-0.91141031291,1.26568562877,1.05486266252,2.41783138391
-6.19524543354,-0.0969493053053,0.568772317343,1.02441099387
2.76091944583,0.850415760615,-0.517318027831,-1.10900939617
0.837084325205,3.88778082654,-0.553408373007,0.227570213794
6.53324920457,4.32514589246,1.12050128182,2.14414982375
0.759414083946,0.992510958382,1.10441093664,-0.389270566282
-2.31442103668,-1.1201239757,0.938320591469,-1.09269095632
5.32174384269,-1.86275890977,3.80223024629,-2.99611134636
1.58790872206,2.68460615615,4.01613990112,1.5104682636
0.304073601437,2.37197122207,1.85004955594,2.46704787356
-5.81976151919,1.24933628799,2.23395921077,-0.406372516474
2.01640336018,0.746701353914,3.1578688656,-1.92979290651
-10.4174317605,-2.20593358016,3.23177852042,-4.28321329655
-9.77126688108,-4.06856851425,0.0256881752448,-6.07663368659
-8.75510200171,-3.76120344832,1.36959783007,-5.15005407663
-8.82893712234,-6.5238383824,1.22350748489,-6.78347446667
-5.30277224297,-5.25647331648,-0.29258286028,-4.1568948567
-0.566607363591,-6.73910825055,-3.18867320545,-4.68031524674
-3.19044248422,-6.63174318463,-4.05476355063,-5.33373563678
-0.064277604848,-1.07437811871,-2.9708538958,-0.62715602682
7.05188727452,1.02298694721,-2.09694424098,1.22942358314
-2.14194784611,-0.459647986867,-3.25303458615,-0.103996806896
13.7242170333,6.30771707905,2.01087506867,4.99258280306
-1.34961808736,9.80508214498,6.0347847235,7.16916241303
0.456546792007,8.35244721089,3.33869437832,6.18574202299
1.66271167138,7.95981227682,3.90260403315,7.76232163295
6.45887655075,8.06717734274,4.51651368797,7.93890124291
-2.19495856987,8.10454240867,3.4904233428,5.53548085287
-4.2387936905,9.10190747459,2.65433299762,6.15206046283
0.677371188867,10.4192725405,1.40824265245,7.9086400728
-1.49646393176,6.54663760643,2.24215230727,3.74521968276
-1.04029905239,3.67400267235,2.1160619621,2.40179929272
-3.79413417301,0.871367738273,0.529971616923,-2.72162109732
0.722030706354,1.57873280419,1.36388127175,-0.925041487357
-14.1118044143,-2.58390212989,2.46779092657,-4.7284618774
-10.6256395349,-8.59653706396,-1.0582994186,-10.9918822674
-0.368372093009,-1.50457485464,3.33774709302,3.54238372093
-6.04633941241,-4.30109237662,1.08536008171,-1.80655022546
-3.70430673182,-4.24760989859,-0.567026929595,-2.04548417186
-2.41227405121,-0.184127420562,1.3605860591,6.35558188175
3.90975862939,-3.35064494254,-0.831800952208,5.00664793536
-2.13820869002,-0.677162464515,0.425812036483,3.64771398897
-5.02617600942,0.256320013512,3.02342502517,3.43878004258
-2.20414332882,-6.26019750846,0.541038013869,-0.340153903817
-5.14211064822,-5.28671503043,-0.641348997438,0.690912149788
-12.3600779676,-2.50323255241,3.36626399125,0.351978203396
-6.93804528702,-0.849750074383,3.54387697995,-0.876955742995
-2.13601260642,-0.0562675963556,2.41148996864,-0.295889689387
1.84602007417,0.627214881672,2.56910295733,0.88517636422
-5.40194724523,2.1606973597,1.89671594602,1.24624241783
-1.62991456463,0.904179837718,0.474328934717,3.60730847143
-8.65788188403,-0.022337684255,-0.218058076593,1.03837452504
-12.3858492034,1.77114479377,1.0795549121,-1.98055942135
-4.99381652283,5.9946272718,0.417167900794,0.970506632257
3.96821615777,9.13810974982,0.174780889485,7.09157268586
-11.9497511616,6.95159222785,0.37239387818,3.94263873947
-7.10771848104,6.70507470588,0.710006866871,2.62370479308
-3.95568580044,7.8285571839,1.20761985556,3.58477084669
-5.12365311984,5.18203966193,1.81523284426,2.17583690029
-4.55162043924,6.04552213995,1.90284583295,1.7869029539
-2.73958775864,7.44900461798,6.18045882164,3.30796900751
-4.26755507804,5.81248709601,3.78807181034,0.199035061116
2.36447760256,6.35596957403,2.76568479903,-0.289898885276
-1.01348971685,6.03945205206,2.45329778772,-0.138832831668
-2.00145703625,3.59293453008,0.620910776413,-1.02776677806
-1.59942435565,1.34641700811,-1.8714762349,0.663299275546
5.21260832495,0.509899486136,-2.7938632462,-1.88563467085
8.92464100555,2.24338196416,1.30374974249,0.865431382761
0.0166736861465,-0.933135557811,0.611362731182,-3.78350256363
2.11870636675,-2.43965307979,-1.48102428012,-4.32243651002
-2.95926095266,-7.50617060176,-1.86341129143,-4.64137045642
0.612771727941,-6.06268812374,-0.24579830274,-3.66030440281
3.15480440854,-8.74920564571,-3.88818531405,-6.0892383492
3.62683708914,-6.18572316768,-3.53057232535,-5.10817229559
0.538869769738,-5.44224068966,-2.29295933666,-4.99710624199
-0.339097549662,-4.75875821163,-1.35534634797,-5.15604018838
2.27293513094,-5.2352757336,-0.237733359276,-4.82497413477
-2.87503218847,-2.58179325558,0.749879629417,-2.23390808117
-5.82299950787,-2.49831077756,0.177492618108,-3.64284202756
-0.330966827267,0.99517170047,2.0351056068,1.31822402605
0.441065853331,-1.1113458215,2.23271859549,2.81929007966
-4.09690146607,-6.30786334348,-0.349668415814,-2.85964386674
3.11513121453,-4.21438086545,-1.78205542712,-5.47857781313
2.15716389513,-2.54089838743,-2.36444243843,-7.46751175952
-4.80080342428,-5.9274159094,-3.44682944974,-9.88644570591
-5.89877074368,-2.33393343137,-1.99921646104,-7.7853796523
-1.87673806308,-4.25045095335,-3.13160347235,-8.1943135987
4.79529461752,-4.65696847532,-2.68399048366,-8.43324754509
-8.08267270188,-6.4534859973,-3.03637749497,-12.4221814915
-7.79064002128,-4.36000351927,-3.09876450627,-10.1611154379
4.56139265932,-5.51652104125,-4.62115151758,-5.42004938427
5.03342533991,-7.84303856322,-6.36353852889,-9.15898333066
7.19545802051,-2.64955608519,-6.0159255402,-5.66791727705
-4.47250929889,-0.826073607164,-5.5283125515,-5.69685122345
4.85952338171,0.0374088708595,-3.40069956281,-1.40578516984
7.09155606231,3.23089134889,-1.20308657412,3.10528088377
13.8835887429,3.33437382691,-1.98547358543,3.41634693738
12.4056214235,2.02785630494,-3.61786059673,3.95741299098
12.3076541041,2.89133878296,-3.32024760804,2.92847904459
16.2896867847,8.91482126099,-0.812634619348,8.1995450982
27.4117194653,8.32830373901,-2.01502163065,10.3006111518
23.0337521459,8.80178621704,-0.627408641962,9.71167720541
14.9157848265,9.51526869507,1.34020434673,10.142743259
4.9378175071,9.45875117309,0.357817335424,7.30380931263
9.2098501877,9.92223365112,1.43543032412,6.27487536624
2.2518828683,4.23571612915,1.64304331281,3.40594141984
-0.706084451107,2.74919860717,1.1306563015,2.39700747345
2.66594822949,6.29268108519,2.06826929019,7.04807352706
4.89798091009,7.11616356322,1.11588227889,8.87913958067
5.48001359069,10.7296460412,3.26349526758,10.0602056343
5.58204627129,4.34312851927,2.70110825627,7.74127168788
1.69407895189,2.9066109973,1.63872124496,2.57233774149
-4.88388836751,-0.409906524674,-1.76366576634,-0.576596204903
0.878144313083,-4.55642404665,-3.29605277765,-0.375530151297
-4.88982300632,-4.56294156862,-1.99843978896,-1.09446409769
3.55220967428,-0.209459090594,0.459173199735,1.00660195592
5.98424235488,0.624023387427,-0.0932138115732,2.38766800953
5.48627503548,0.507505865455,-0.535600822881,3.41873406313
8.32830771608,-2.42901165652,-2.70798783419,-0.250199883258
4.41034039668,-0.405529178493,-2.34037484549,2.05086617035
8.67237307728,-1.48204670047,0.367238143197,5.22193222396
6.50440575787,-1.71856422244,-0.755148868109,4.64299827756
6.49643843847,-0.00508174441347,0.522464120582,6.13406433117
10.4484711191,-0.531599266389,0.260077109275,4.61513038478
5.48050379967,0.821883211636,-0.632309902032,3.15619643839
3.13253648027,-4.19463431034,-1.61469691334,-2.47273750801
5.03456916087,-9.34115183231,-1.56708392465,-4.1916714544
4.91660184147,-4.36766935429,1.19052906405,-3.48060540079
12.1786345221,-2.81418687626,1.18814205274,-2.45953934718
11.7206672027,-4.58070439823,0.43575504143,0.181526706423
1.73269988327,-2.35722192021,1.15336803012,3.69259276003
5.41473256386,-2.34373944218,0.0109810188151,1.87365881364
-2.16323475554,-0.790256964156,1.28859400751,0.0447248672463
6.85879792506,3.85322551387,2.0562069962,4.28579092085
0.750830605659,-1.2532920081,0.943819984894,-1.77314302554
-2.42713671374,-0.949809530081,1.68143297359,1.19792302807
2.08489596685,-1.31632705205,0.519045962279,3.36898908167
-8.78307135255,-4.05284457403,-1.46334104903,-1.74994486472
-8.56103867195,-2.759362096,0.0542719396635,-5.59887881111
0.0409940086502,-2.14587961798,-1.14811507164,-5.5778127575
-10.7169733108,-6.33239713995,-1.21050208295,-7.5467467039
-11.1649406302,-4.48891466192,1.15711090574,-6.67568065029
-6.90290794956,-1.7054321839,0.274723894436,0.0953854033196
-14.500875269,-2.63194970587,0.652336883128,-4.59354854307
0.331157411645,0.401532772157,2.28994987182,-1.18248248946
6.65319009225,-3.13498474982,2.19756286051,-2.09141643586
-18.0447772272,-5.20150227179,1.7351758492,-5.90035038225
-13.6927445466,-4.94801979377,-0.857211162103,-6.05928432864
-17.540711866,-6.09453731574,-1.67959817341,-8.57821827504
-7.43867918536,-6.46105483772,-1.88198518472,-10.6871522214
-0.716646504767,-6.48757235969,-1.51437219602,-5.90608616782
-5.86461382416,-3.45408988166,0.293240792667,-2.70502011421
2.47741885643,0.999392596361,0.46085378136,-0.0439540606058
3.42945153703,3.07287507439,-1.08153322995,2.767111993
1.77148421763,0.336357552413,-0.813920241255,-2.08182195339
-6.18648310177,0.509840030438,0.893692747439,-0.950755899783
-9.65445042117,1.50332250846,2.30130573613,0.840310153824
-10.6624177406,3.14680498649,3.68891872482,1.62137620743
6.96961494003,3.14028746452,2.03653171352,3.83244226104
-8.90835237937,5.05376994254,1.72414470221,2.26350831465
-7.61631969878,9.15725242057,2.1517576909,4.70457436826
-7.28428701818,8.6807348986,0.949370679593,5.90564042186
-5.41225433758,8.35421737662,2.91698366828,9.14670647547
-6.60022165698,8.23769985465,2.99459665698,6.72777252908
-4.34277252906,2.65653706395,3.73884811046,1.81916787791
-2.49280637702,1.99433027949,1.81448140794,3.49237118888
-3.172840225,-0.237876504987,2.73011470541,2.41557449986
-7.81287407296,2.03991671054,2.65574800288,2.20877781084
-5.40290792093,1.32770992607,0.00138130035521,1.11198112182
-0.322941768896,-2.2244968584,-1.23298540217,-0.564815567204
-12.2629756169,-5.34670364287,-1.1473521047,-5.62161225623
-13.9230094648,-6.90891042735,-1.88171880723,-6.45840894525
-11.4530433128,-8.03111721182,0.533914490246,-8.76520563427
-8.29307716076,-7.89332399629,1.01954778772,-7.92200232329
2.49688899126,-5.34553078076,-0.744818914807,-2.95879901231
-3.1931448567,-6.45773756523,-1.18918561734,-3.97559570134
2.74682129533,-5.86994434971,-1.14355231986,-3.01239239036
-7.30321255264,-4.91215113418,-2.77791902239,-2.61918907938
-1.4332464006,-5.68435791865,-2.94228572492,-3.6059857684
3.63671975143,-3.82656470312,-2.46665242744,-3.72278245743
-5.22331409654,-6.05877148759,-0.99101912997,-7.72957914645
-1.25334794451,-5.46097827207,-1.6853858325,-3.25637583547
9.95661820753,-3.31318505654,-2.37975253502,1.74682747551
4.60658435956,-2.32539184101,-2.42411923755,-0.629969213514
8.83655051159,3.13240137452,-1.12848594007,2.74323409746
6.94651666362,-2.51980540995,-1.8928526426,-0.373562591558
-2.53351718434,-2.69201219442,-2.07721934513,-1.85035928058
4.29644896769,0.455781021104,-2.25158604766,1.4928440304
2.33641511972,1.02357423663,-0.685952750184,1.87604734137
6.75638127175,-1.23863254784,-0.130319452712,-0.0307493476485
4.84634742379,-6.66083933231,-3.10468615524,-5.10754603667
12.3963135758,-4.85304611678,-1.93905285777,-3.66434272569
9.23627972785,0.604747098747,0.666580439707,1.58886058529
10.6062458799,1.90254031427,-1.67778626282,1.13206389626
13.9762120319,4.1203335298,-0.152152965346,7.12526720724
1.08617818395,3.35812674533,2.16348033213,4.40847051822
3.33614433598,-0.0140800391418,0.9391136296,2.3716738292
6.81611048801,-0.836286823615,1.02474692707,2.05487714018
-0.193923359955,0.421506391915,1.09038022455,-1.52191954884
14.7060427921,6.16929960744,2.76601352202,5.89128376213
3.90600894411,3.93709282297,2.45164681949,4.83448707311
-8.66402490386,1.0548860385,-0.0727198830336,-0.782309615912
-4.18405875183,1.03267925403,2.85291341444,-1.06910630493
1.01590740021,4.03047246956,3.05854671191,0.934097006044
2.05587355224,2.71826568509,3.05418000939,0.257300317022
-4.25416029573,1.91605890061,1.95981330686,-1.379496372
-1.6741941437,4.57385211614,0.835446604329,0.783706938979
-9.77422799166,2.07164533167,1.2810799018,0.756910249955
1.75573816037,2.5494385472,-0.703286800725,-0.719886439067
1.9857043124,5.45723176272,0.592346496751,0.55331687191
-8.75432953557,4.71502497825,2.62797979422,2.28652018289
-1.76436338353,2.46281819378,3.18361309169,2.16972349387
3.5056027685,3.85061140931,1.58924638917,4.76292680484
11.6055689205,5.17840462484,1.48487968664,5.58613011582
-2.75446492744,7.05619784036,2.11051298411,4.7093334268
2.0155012246,9.38399105589,2.17614628159,8.32253673778
0.51546737663,7.68178427142,-0.30822042094,7.89574004876
8.90543352866,8.91957748695,0.137412876533,8.89894335973
18.8253996807,7.84737070248,1.34304617401,8.29214667071
0.0153658327254,3.715163918,-0.0213205285199,3.94534998169
2.37533198476,6.80295713353,-0.0656872310465,7.85855329267
-4.92470186321,6.31075034906,0.0899460664259,7.74175660365
4.74526428883,3.49854356459,-1.8544206361,7.48495991462
3.30523044086,5.28633678012,-2.50878733863,5.4081632256
2.40519659289,7.39412999565,-3.35315404115,6.90136653658
4.98516274492,5.89192321117,-0.537520743683,4.61456984756
7.90512889696,7.1097164267,2.04811255379,4.74777315853
-4.97490495101,7.75750964223,2.87374585126,4.16097646951
-7.95493879898,7.11530285776,2.96937914874,6.41417978049
1.06502735305,8.21309607329,1.93501244621,4.30738309147
-8.62500649492,3.96088928882,0.820645743683,-0.619413597553
-5.19504034289,5.34868250434,1.66627904116,3.51378971342
-4.24507419085,2.60647571987,2.63191233863,0.606993024403
-8.92510803882,3.9942689354,2.3375456361,0.510196335381
0.184858113214,6.03206215093,2.09317893358,1.82339964636
-4.76517573475,0.379855366456,1.36881223105,-3.36339704266
-4.41520958272,-1.14235141802,1.81444552852,-4.33019373169
-8.71524343069,-3.84455820249,1.08007882599,-6.94699042071
-5.48527727865,-2.94676498696,-0.684287876533,-7.06378710973
-6.76531112662,-5.64897177143,-1.91865457906,-10.9405837988
-18.6653449746,-8.15117855591,-1.91302128159,-12.0573804878
-8.81537882256,-5.71338534037,-3.34738798411,-6.9941771768
-6.12541267053,-3.78559212484,-2.65175468664,-7.24097386582
2.45455348151,-2.74779890932,-1.98612138917,-4.33777055484
-8.64548036646,0.489994306208,-0.740488091695,-3.31456724386
-4.22551421443,-1.47221247826,-1.27485479422,-4.84136393288
6.9844519376,-3.05441926273,-1.98922149675,-4.95816062191
-2.93558191036,-5.22662604721,-0.513588199276,-5.31495731093
-2.58561575833,-0.438832831678,-0.897954901802,0.198246000049
2.8443503937,0.878960383852,0.91767839567,4.44144931103
4.01431654573,-4.39324640062,0.193311693143,0.164652622007
3.02428269777,-5.21545318509,-1.72105500938,-1.33214406702
-0.115751150202,-6.61765996957,-1.81542171191,-4.21894075604
0.614215001828,-5.65986675403,-1.40978841444,-7.35573744506
-7.37581884614,-6.77207353851,-2.33415511696,-9.66253413408
-0.655852694104,-9.85428032298,-2.23852181949,-10.3793308231
-5.22588654207,-10.0064871075,-3.47288852202,-10.0761275121
0.464079609963,-4.65869389192,-3.73725522455,-3.44292420115
2.21404576199,-4.3009006764,-4.72162192707,-1.44972089017
1.98401191402,-2.46310746087,-2.3759886296,-2.64651757919
-2.26602193394,-0.835314245338,-2.00035533213,0.0166857317854
5.02394421809,-0.337521029811,-1.71472203465,-1.13011095724
8.97391037012,0.400272185714,-0.419088737179,0.313092353741
1.85387652216,-1.09193459876,-0.393455439707,-0.623704335283
1.09384267419,0.805858616775,-1.03782214223,1.1294989757
3.11380882622,-4.3063481677,-1.18218884476,-3.20729771332
9.67377497825,-5.90855495217,-0.666555547288,-3.27409440235
-0.636258869716,-3.96076173665,-0.570922249815,-0.580891091369
-2.77629271768,-4.50296852111,-0.395288952341,-3.52768778039
9.80367343435,-1.01517530559,1.81034434513,0.155515530585
3.78363958639,-0.297382090059,2.5059776426,1.99871884156
3.48360573841,-2.07958887453,0.671610940077,0.341922152542
8.07357189045,1.078204341,0.317244237551,6.08512546352
11.2235380425,2.32599755653,0.622877535025,6.6583287745
15.9535041945,6.93379077205,5.9885108325,9.94153208548
3.35347034654,5.82158398758,5.36414412997,7.96473539645
6.72343649858,1.46937720311,3.97977742744,7.56793870743
-5.55659734939,-3.51282958136,1.65541072492,0.831142018409
-0.786631197356,0.394963634164,0.801044022388,2.63434532939
2.20333495467,-2.5272431503,-1.68332268014,2.51754864036
-1.09669889329,-3.01944993478,-0.947689382665,-0.679248048657
-11.1167327413,-0.561656719248,1.53794391481,0.273955262321
-4.33676658923,-0.93386350372,0.333577212281,0.737158573298
-2.75680043719,-1.35607028819,-1.01078949025,-1.04963811572
0.453165714836,-0.278277072663,-0.945156192773,-0.586434804745
-2.70686813313,-2.89048385714,-2.7395228953,-4.43323149377
-8.1069019811,0.197309358391,-2.20388959783,-1.29002818279
0.313064170936,4.46510257392,-0.208256300353,2.77317512819
-8.45696967703,5.54289578945,1.72737699712,3.37637843916
1.362996475,2.75068900498,2.24301029459,1.64958175014
-3.53703737297,0.968482220502,0.638643592065,-2.97721493888
-6.82707122093,0.656275436035,0.414276889538,-2.7440116279
-7.54124273256,3.41823037791,4.72732194767,1.84821947674
-0.401934284015,2.93431631684,3.72146968275,0.0607967290725
2.78737416453,4.74040225577,3.27561741782,0.253373981408
-3.34331738693,1.0364881947,2.9997651529,-0.424048766257
-2.93400893838,-0.247425866364,2.86391288798,1.92852848608
0.405299510159,0.508660072566,2.10806062305,0.221105738412
5.15460795871,4.8747460115,1.30220835813,3.40368299075
7.00391640725,7.71083195043,1.8363560932,7.58626024308
-2.95677514421,7.80691788936,4.67050382828,6.20883749542
2.38253330434,8.20300382829,6.30465156335,8.32141474775
8.04184175288,10.0290897672,5.58879929843,11.3939920001
0.211150201427,5.70517570615,1.11294703351,7.44656925242
10.86045865,9.20126164508,0.977094768585,10.3691465048
-2.54023290149,5.70734758401,2.01124250366,6.82172375709
0.159075547061,6.45343352294,2.38539023874,6.27430100943
5.1083839956,9.50951946187,2.53953797381,9.02687826176
2.85769244415,9.8056054008,3.14368570889,9.2194555141
0.927000892691,9.87169133973,6.53783344396,8.91203276643
-2.45369065876,6.38777727866,5.82198117904,5.50461001876
-0.454382210217,3.85386321759,3.11612891411,3.2571872711
-7.39507376168,1.71994915652,3.52027664919,3.01976452343
1.40423468687,0.526035095456,1.28442438427,1.58234177577
-6.94645686459,0.412121034384,-0.421427880656,1.54491902811
-4.27714841604,-0.161793026684,0.0527198544205,0.0974962804394
-4.08783996749,-2.42570708775,-0.173132410504,-1.27992646722
-4.04853151895,-3.08962114883,0.0510153245723,-3.78734921489
-9.22922307041,-5.5335352099,-0.394836940352,-8.85477196256
-7.30991462187,-5.89744927096,-0.670689205277,-8.87219471022
-9.45060617332,-7.65136333204,-0.4265414702,-7.04961745789
-5.68129772478,-6.34527739311,-1.32239373512,-5.65704020555
-8.46198927623,-6.17919145417,-1.74824600005,-4.79446295322
1.11731917231,-5.55310551524,-2.79409826497,-4.72188570088
2.84662762086,-4.49701957631,-2.16995052989,-6.31930844855
-0.2040639306,-8.30093363738,0.21419720518,-9.07673119621
4.36524451794,-5.92484769845,1.53834494026,-3.77415394388
-2.92544703351,-6.06876175952,-0.137507324669,-4.61157669154
-9.44613858496,-1.11267582059,-2.89335958959,-3.72899943921
-6.45683013642,3.95341011834,-0.499211854514,-0.456422186873
-8.74752168788,-3.03050394273,-0.795064119438,-7.11384493454
-11.3082132393,-1.3244180038,-0.860916384363,-6.3812676822
-5.41890479079,2.44166793513,1.15323135071,-3.13869042987
-3.39959634225,0.357753874065,-0.412620914212,-5.84611317753
-0.2802878937,-1.37616018701,-3.11847317914,-7.2735359252
-6.86097944515,-4.83007424808,-1.82432544406,-6.73095867286
3.00832900339,-1.77398830915,-1.09017770898,-2.24838142053
0.647637451933,-2.33790237022,-1.60602997391,-5.0558041682
-2.89305409952,2.13818356871,-0.58188223883,-4.44322691586
2.44625434902,2.37426950765,-1.02773450375,-0.540649663526
2.40556279756,-0.869644553422,-2.30358676868,-2.60807241119
-4.01512875389,-4.12355861449,-3.5094390336,-5.30549515885
-10.5358203053,-5.69747267556,-1.27529129853,-8.71291790652
-7.4765118568,-5.73138673663,-2.26114356345,-7.25034065419
1.29279659174,-6.5853007977,-4.76699582838,-8.75776340185
-3.89789495971,-7.19921485877,-4.2928480933,-9.24518614952
1.11141348883,-5.31312891984,-4.20870035822,-4.27260889718
3.88072193737,-4.31704298091,-5.72455262315,-1.40003164485
-3.52996961408,-2.92095704198,-4.75040488807,-2.57745439251
0.239338834464,-3.84487110305,-4.65625715299,-3.19487714018
1.96864728301,-0.90878516412,-2.67210941792,1.59770011216
-3.18204426845,-4.49269922519,-3.00796168284,-1.91972263551
6.1672641801,-2.79661328626,-2.78381394777,-0.907145383175
4.30657262864,-4.87052734733,-3.98966621269,-0.364568130839
-3.44411892282,-2.5344414084,-1.40551847761,0.628009121498
7.29518952573,-2.11835546947,-1.74137074254,2.25058637383
5.54449797427,-4.43226953053,-2.27722300746,-0.306836373833
-2.68619357718,-3.9661835916,-2.68307527239,-2.4642591215
5.72311487136,0.559902347326,-2.05892753731,1.78831813084
0.242423319905,-2.55401171375,-2.70477980223,2.38089538317
8.03173176845,-0.147925774814,0.359367932841,2.7734726355
5.491040217,0.218160164117,0.263515667917,2.10604988784
2.22034866554,-2.36575389696,-1.41233659701,3.56862714017
-0.120342885919,-1.07966795802,-4.06818886193,4.07120439251
5.52896556263,-4.4835820191,-6.93404112685,-0.496218355156
5.11827401117,-12.1374960802,-5.58989339178,-2.81364110282
9.28758245972,-11.4814101412,-7.1157456567,-5.96106385049
12.2868909083,-9.3453242023,-4.75159792163,-2.85848659815
6.3161993568,-3.04923826337,-2.17745018655,2.22409065418
12.1855078053,-4.64315232444,-3.81330245148,-0.633332093481
19.6148162539,-2.90706638551,-2.6691547164,0.539245158854
16.7141247024,-4.62098044658,-1.35500698132,4.21182241119
0.703433150979,-8.22489450765,-4.60085924625,-3.64560033648
3.13274159953,-5.77880856872,-5.64671151117,-5.42302308414
-1.39794995193,-5.43272262979,-3.72256377609,-6.33044583181
2.42135849661,-0.326636690857,-1.17841604102,0.302131420527
12.6406669452,0.939449248071,-2.32426830594,4.08470867286
10.5499753937,1.825535187,-0.650120570866,3.6472859252
5.24928384225,3.11162112593,0.42402716421,5.66986317753
11.8985922908,4.48770706486,1.44817489929,7.04244042987
3.67790073933,6.15379300379,3.13232263436,5.0850176822
6.66720918788,2.54987894272,1.87647036944,3.50759493454
8.37651763642,3.31596488166,-0.269381895485,3.99017218687
8.96582608497,0.922050820587,-5.54523416041,0.262749439205
6.32513453351,-1.46186324048,-5.06108642533,-3.79467330846
5.01444298206,1.21422269845,-2.19693869026,1.24790394387
4.6237514306,3.39030863738,-0.052790955182,1.12048119621
3.07305987915,2.19639457631,-0.0586432201053,-0.0569415514547
-5.85763167231,2.39248051524,1.75550451497,-1.11436429912
-4.45832322377,2.91856645417,1.88965225005,-1.71178704679
-2.21901477522,0.734652393097,1.59379998512,1.16079020555
-2.93970632668,-1.48926166797,1.9079477202,-0.886632542117
-3.55039787813,0.446824270963,3.51209545527,3.43594471022
1.66891057041,3.39291020989,2.44624319035,8.38852196255
-0.471780981046,2.41899614882,3.51039092543,4.37109921489
2.2675274675,4.44508208775,4.7845386605,6.46367646722
-2.10316408396,2.94116802668,2.07868639558,5.90625371956
-4.25385563541,1.09725396561,1.77283413066,1.40883097189
-1.54454718687,5.91333990454,2.68698186573,4.68140822423
4.37476126168,7.93942584348,3.04112960081,9.09398547656
5.34406971022,6.29551178241,4.02527733588,7.4065627289
6.16337815876,3.89159772134,1.69942507096,2.42913998123
-3.99731339269,3.41768366026,1.04357280603,0.961717233567
-6.93800494415,2.28376959919,-0.0522794588887,1.1742944859
1.3013035044,1.84985553813,-0.538131723813,1.33687173824
1.78061195294,2.17594147706,2.27601601126,4.45944899057
-7.01007959851,-2.34797258402,1.60016374634,-1.99797375709
-9.17077114997,-0.631886645086,3.12431148142,-2.18539650476
0.408537298572,1.36419929385,1.90845921649,0.147180747575
-0.472154252882,1.38028523278,-0.217393048433,-1.12024200009
-7.37284580434,-1.13362882829,2.71675468664,-3.22766474775
-4.22353735579,1.51245711064,3.94090242172,0.334912504581
0.23577109275,-0.39145695043,2.59505015679,-1.78251024309
-8.7849204587,-1.4753710115,3.06919789187,-5.47993299075
0.41438798984,-0.589285072572,3.56334562695,-3.45735573842
3.51369643838,-1.05319913364,4.96749336202,-0.0347784860805
-7.96699511307,1.13288680529,0.6716410971,-3.08220123375
-22.9276866645,3.57897274422,-2.12421116782,-4.81962398141
-20.638378216,8.75505868315,4.62993656725,1.02295327092
-10.8590697674,10.6911446221,6.99408430233,1.79553052326
-1.10457120377,-2.97995279307,-0.790870705485,-0.849683975877
0.403788420124,-3.60312429866,-1.03966757383,0.341397075576
-0.767851955985,-1.87629580425,-2.10846444218,-0.787521872975
