4.33398619186,24.0787718023,2.51182049418,16.1711882267
-1.19253696667,24.7128893232,4.75612007301,18.4392133137
2.1209398748,8.35700684399,-3.17958034816,7.95723840069
7.95441671626,2.26112436482,-7.51528076932,3.52526348767
12.0578935577,-3.99475811435,-6.01098119049,3.14328857465
17.8713703992,0.119359406477,-7.28668161166,5.06131366163
6.29484724067,-2.15652307269,-5.47238203283,4.49933874862
4.14832408213,4.50759444814,-2.848082454,10.8873638356
0.721800923598,2.86171196896,-3.07378287516,4.40538892258
-0.144722234934,5.2558294898,-1.07948329633,6.05341400956
-2.32124539347,7.93994701062,-0.425183717502,8.86143909654
-1.627768552,2.42406453145,-0.400884138669,3.78946418352
3.71570828946,1.35818205228,-1.78658455984,3.8074892705
12.4791851309,1.60229957311,-2.25228498101,6.97551435748
12.5826619724,4.98641709394,-0.947985402174,8.04353944446
8.80613881386,5.19053461477,-1.44368582334,7.39156453144
3.16961565533,1.4646521356,-2.05938624451,3.04958961843
-2.7769075032,5.57876965643,1.44491333432,4.1876147054
-0.0434306617353,5.96288717726,1.87921291315,4.32563979238
-1.31995382027,-6.03299530191,-2.78648750802,-0.486335120633
-1.8564769788,-0.758877781082,0.317812070814,3.60168996634
-0.473000137334,-4.50476026025,0.542111649647,-1.32028494667
0.100476704132,-5.28064273942,-0.523588771521,-3.36225985969
1.3739535456,-5.90652521859,-0.679289192689,-5.04423477271
2.35743038706,-2.79240769776,-0.474989613856,-3.70620968573
0.170907228532,-1.51829017693,-0.960690035025,-4.48818459875
-6.80561593,-6.5441726561,-0.916390456194,-9.50015951177
-12.7721390885,-1.69005513528,-0.482090877362,-6.80213442479
-10.1586622471,-8.61593761445,-0.947791298529,-7.31410933781
-7.2551854056,-0.291820093615,1.7065082803,-6.47608425083
-13.5217085641,-11.5577025728,-0.209192140866,-9.64805916385
-11.1682317227,-5.45358505196,1.33510743796,-6.72003407687
-9.5447548812,1.33053246887,3.2394070168,-4.38200898988
-3.37127803973,-0.975350010298,3.82370659563,-2.30398390291
-2.18780119827,-1.08123248947,5.70800617446,0.594041184075
3.7056756432,0.87288503136,4.50230575329,-0.907933728944
-4.07084751533,-0.80299744781,1.77660533212,-4.45990864196
-4.78737067387,-7.16887992698,1.62090491095,-9.65188355498
-0.00389383240145,-6.67476240615,1.11520448979,-5.113858468
-1.95041699093,-0.740644885322,1.58950406862,-0.675833381021
-4.52694014947,-1.49652736449,2.28380364745,-1.14780829404
-0.163463308001,-4.76240984366,1.52810322628,-1.70978320706
5.29001353347,2.10170767717,1.97240280512,0.368241879922
2.98349037493,1.105825198,3.51670238395,0.1362669669
7.3869672164,-1.17005728118,2.63100196278,-1.81570794612
5.08044405787,-3.62593976034,3.81530154161,-2.21768285914
4.05392089933,-5.83182223952,2.45960112044,-5.41965777216
-3.1226022592,-11.3977047187,-1.13609930073,-9.78163268518
-5.28912541773,-10.2335871979,-1.4517997219,-6.4136075982
0.764351423733,-14.649469677,-3.31750014306,-8.44558251121
-1.3421717348,-8.2353521562,-1.28320056423,-3.86755742423
-2.98869489333,-5.14123463537,0.391099014601,-5.00953233725
0.964781948134,-10.8571171145,-1.57460140657,-9.06150725027
1.1582587896,-6.65299959371,-2.26030182774,-6.02348216329
-5.13826436893,-3.18888207288,-1.4960022489,-7.54545707631
-4.49478752747,1.48523544795,0.158297329928,-6.14743198933
-3.761310686,-7.49064703122,-1.42740309124,-3.41940690235
-1.70783384453,-1.07652951039,1.05689648759,-2.64138181537
-1.39435700307,-8.26241198956,-2.26880393358,-5.88335672839
-6.1508801616,-0.458294468732,-0.814504354745,-2.00533164141
-0.147403320134,3.2558230521,0.709795224087,-3.18730655443
0.016073521334,-6.31005942707,-2.99590519708,-9.44928146744
2.3095503628,1.87405809376,1.09839438175,-5.07125638047
2.96302720427,-7.97182438541,0.432693960582,-7.58323129349
7.98650404573,-2.35770686458,4.88699353941,-2.6952062065
5.6199808872,-6.11358934375,3.81129311825,-0.947181119522
-4.66654227133,6.12052817707,-0.784407302923,-2.96915603254
-10.9730654299,10.4346456979,2.38989227591,0.338869054438
-9.8495885884,4.75876321874,3.35419185474,0.516894141419
-2.96611174693,2.48288073956,1.34849143357,0.824919228398
2.81736509453,3.13699826039,-0.847208987596,2.04294431538
-1.069158064,6.49111578122,1.12709059124,5.57096940236
0.784318777467,7.81523330205,4.03139017007,4.11899448934
-2.41220438107,8.35935082288,4.3256897489,1.05701957632
-1.8787275396,9.70346834371,4.86998932773,3.1050446633
-5.86525069813,0.167585864539,1.87428890657,-1.59693024972
-0.561773856665,8.41170338537,2.8885884854,2.69109483726
-3.8282970152,4.7558209062,-0.197111935773,3.29911992425
-3.34482017373,0.849938427029,-1.35281235694,2.50714501123
2.60865666773,11.0440559479,5.46148722189,7.1151700982
3.5221335092,10.6681734687,4.12578680072,5.96319518519
3.11561035067,-3.87770901048,-0.409913620444,1.16122027217
2.41908719213,-5.99359148965,1.25438595839,-0.950754640853
2.2425640336,3.71052603118,2.27868553722,1.08727044613
2.73604087507,4.71464355201,4.29298511605,6.53529553311
1.52951771653,9.36876107284,5.21728469488,9.90332062009
1.722994558,6.26287859366,4.24158427371,7.31134570707
0.696471399468,0.0169961144929,3.43588385254,1.42937079405
3.32994824093,0.111113635325,4.42018343138,-0.452604118971
0.513425082399,-0.734768843846,1.87448301021,-0.0545790319884
1.29690192387,-3.15065132302,-0.151217410959,0.113446054995
-2.30962123467,-6.49653380219,-1.19691783213,-1.89852885803
-3.2661443932,-0.432416281357,-0.122618253296,-2.12050377105
-3.96266755173,0.861701239472,-0.908318674465,0.0175213159346
0.480809289735,-1.4141812397,-0.364019095632,-3.22445359708
-6.8657138688,3.90993628113,1.6302804832,-1.6664285101
-11.1422370273,-3.05594619804,-2.10541993797,-3.76840342312
-7.44876018587,-1.31182867721,-1.90112035914,-1.88037833614
-6.5352833444,-10.9577111564,-1.15682078031,-6.03235324916
-2.34180650293,-5.10359363555,0.657478798526,-3.87432816218
-2.69832966147,-5.11947611472,-4.00822162264,-4.6563030752
-7.86485282,-7.64535859389,-4.47392204381,-7.13827798822
-5.16137597853,-0.331241073063,-0.809622464978,-6.23025290124
-3.83789913706,-8.79712355223,-5.67532288615,-9.65222781426
-4.2644222956,-6.5730060314,-4.15102330731,-6.14420272728
-0.0409454541332,-3.73888851058,-4.57672372848,-2.0661776403
2.21253138733,-0.194770989747,-3.12242414965,5.00184744669
3.1060082288,-6.45065346892,-1.72812457082,0.259872533665
0.0394850702687,6.06346405191,2.02617500801,1.45789762064
2.10296191174,-6.06241842726,-2.70952541316,-3.19407729237
-1.5935612468,4.26169909357,-2.23522583432,0.853947794607
-4.39008440533,-15.4941833856,-9.43092625549,-8.49802711841
0.303392436135,2.88993413523,-2.27662667666,1.28999796857
4.0868692776,-7.34594834394,-4.93232709783,-4.93197694445
7.05034611907,-0.951830823111,-3.478027519,-0.123951857473
2.04382296054,-5.07771330228,-3.29372794016,-1.09592677049
-2.892700198,0.0464042185504,-2.05942836133,0.0220983164909
-1.68922335653,1.23052173938,0.0848712174993,0.840123403468
3.36425348494,9.55463926021,3.72917079633,7.05814849045
2.8477303264,4.52875678104,2.50347037516,5.73617357743
10.3112071679,8.66287430187,2.55776995399,10.6441986644
9.57468400933,5.7869918227,1.77206953283,11.4522237514
8.4981608508,16.4711093435,4.12636911166,13.9902488384
8.81163769227,4.11522686435,-0.739331309511,7.56827392536
7.77511453374,4.58934438519,0.89496826932,5.82629901233
4.5185913752,7.70346190601,-1.81073215185,7.98432409932
4.18206821667,1.35757942684,-2.32643257302,5.9323491863
4.11554505814,6.03169694767,-2.29213299418,6.17037427328
0.810534156979,7.76520348837,-0.266210029073,4.2644803779
-0.78658670573,-9.27986369255,-4.17458664279,-2.29990981506
0.396292431562,-7.05493087347,-5.2629632565,-0.674300008017
-1.50082843115,-6.05999805438,-2.76133987022,-2.33869020098
-2.59794929385,-7.9950652353,-1.35971648393,-1.09308039394
-2.25507015656,-8.10013241622,-0.52809309765,-3.1574705869
-1.26219101927,-4.13519959714,-2.93646971137,-2.74186077985
-4.17931188198,-13.0902667781,-9.28484632508,-5.40625097281
-4.27643274469,-21.435333959,-12.1532229388,-9.55064116577
-6.0735536074,-8.7304011399,-6.11159955251,-5.57503135873
-7.96067447011,-17.7754683208,-8.69997616623,-10.4394215517
-10.9277953328,-15.6605355017,-9.28835277994,-11.8038117446
-7.58491619552,-8.45560268266,-6.44672939366,-5.21820193761
-7.01203705823,-12.3106698636,-7.36510600737,-7.98259213057
-5.94915792094,-15.0057370445,-6.62348262109,-6.46698232353
-4.66627878364,1.91919577458,0.798140765197,0.678627483514
3.92660035365,2.53412859366,0.949764151481,-0.175762709445
13.3694794909,-1.46093858726,1.56138753777,3.6798470976
8.33235862823,-0.686005768173,-0.51698907595,5.01545690464
-9.06476223448,-5.79107294909,-4.74536568967,-1.20893328832
-10.0118830972,8.58385986999,-0.27374230338,3.16667651872
-6.80900395989,7.45879268907,-0.0021189170966,1.45228632576
-4.8761248226,17.4337255081,3.29950446919,9.1178961328
0.366754314688,4.94865832723,-0.428872144528,3.25350593984
1.20963345198,1.49359114631,-4.24724875824,-1.92088425312
3.72251258927,4.49852396539,-2.46562537196,-0.225274446078
3.77539172656,2.45345678447,-3.87400198567,-1.16966463904
7.72827086385,4.62838960355,0.177621400611,2.545945168
11.9111500011,7.39332242263,3.4392447869,-0.698445024955
11.9940291384,10.2782552417,3.13086817318,0.767164782086
11.2669082757,-2.0868119392,-2.18750844054,-0.0472254108718
7.49978741302,-3.20187912012,-0.24588505425,-2.13161560383
0.292666550313,-3.14694630104,1.89573833203,-2.38600579679
0.935545687606,3.41798651804,0.697361718319,-0.67039598975
1.1484248249,2.37291933712,2.0789851046,-1.52478618271
-1.40869603781,1.0878521562,2.57060849089,-3.45917637567
0.58418309948,4.49278497528,2.30223187717,-1.85356656863
0.03706223677,7.33771779436,3.98385526346,0.322043238415
-0.350058625936,5.74265061344,-1.09452135026,2.90765304545
-0.357179488645,3.06758343252,2.72710203603,3.1232628525
-1.24430035135,14.9725162516,9.16872542231,6.86887265954
4.95857878594,16.9274490707,7.8703488086,11.9844824666
4.88145792323,8.19238188976,3.47197219488,3.50009227362
6.19433706052,6.57731470885,4.23359558116,1.72570208066
6.28721619781,-1.52775247208,3.02521896745,-0.268688112297
0.560095335104,4.95718034701,4.49684235373,0.326921694745
-0.147025527604,24.7721131661,13.95846574,10.6925315018
0.245853609689,10.8370459852,9.1500891263,3.99814130882
4.01873274698,1.19197880425,4.81171251259,1.84375111587
5.72161188427,12.6669116233,6.93333589887,11.8493609229
6.04449102156,18.4218444424,10.2449592852,9.60497072995
6.08737015886,1.14677726149,5.68658267144,2.67058053699
3.90024929615,3.06171008057,4.23820605773,-1.18380965597
-1.04687156656,3.29664289965,2.71982944401,-2.32819984893
-2.35399242927,0.311575718732,0.461452830295,-3.58259004189
-0.781113291978,5.43650853781,0.773076216579,-2.49698023485
5.63176584531,-7.75855864311,-2.93530039714,-5.1713704278
1.16464498261,-6.70362582403,-0.303677010852,-8.32576062077
1.3175241199,1.08130699506,4.23794637543,-5.74015081372
0.0104032571871,-2.28376018586,2.08956976172,-6.93454100668
1.11328239448,-8.56882736678,1.711193148,-11.0089311996
-5.84383846823,-3.9338945477,0.592816534287,-10.5733213926
-8.76095933094,-10.5189617286,-0.295560079428,-13.4377115856
-6.15808019365,-15.9640289095,-2.06393669314,-11.5521017785
-3.82520105635,-6.16909609046,-1.55231330686,-9.02649197148
-2.87232191906,8.34583672862,1.93931007943,5.50911783556
1.54055721823,5.5607695477,6.14093346571,8.2147276426
0.813436355522,-2.94429763322,1.09255685199,0.0903374496447
1.04631549281,-13.8593648141,-3.71581976172,-5.82405274332
4.74919463011,0.835568004943,1.58580362456,1.37155706373
9.5020737674,13.560500824,3.77742701085,10.4371668708
10.0949529047,7.7854336431,2.62905039713,9.29277667781
9.36783204198,-4.65963353782,-2.94932621658,2.23838648485
6.50071117927,-11.8647007187,-8.1877028303,-2.39600370811
7.42359031656,4.21023210035,-0.716079444013,8.52960609893
7.56646945386,2.07516491943,-3.95445605773,7.84521590597
13.5993485911,17.4200977385,3.03716732856,17.670825713
5.89222772844,1.71503055759,-0.891209285159,6.93643552005
1.34510686573,-6.46003662333,-2.23958589887,0.402045327093
1.15798600302,7.59489619575,2.26203748741,4.46765513414
0.990865140315,-0.0901709851678,1.09366087369,3.71326494118
-1.67625572239,-7.99523816609,-2.94471574002,-1.72112525178
-2.2533765851,-8.88030534701,0.206907646265,0.594484555259
-3.78049744781,7.63462747207,2.97853103255,6.6900943623
-5.35761831052,-9.28043970885,0.000154418832608,3.43570416934
-5.03473917323,-3.43550688976,0.901777805117,2.76131397638
-2.69186003594,8.43942592931,4.8334011914,3.19692378342
-1.27898089865,-2.14564125161,3.66502457769,2.74253359046
-4.77610176135,-5.84070843252,2.97664796397,0.728143397504
-11.1332226241,11.1042243866,8.76827135026,7.40375320454
-6.47034348677,7.24915720564,5.96989473654,4.66936301158
-0.917464349479,1.67409002472,5.12151812282,4.61497281862
-5.59458521219,1.3890228438,5.23314150911,6.39058262567
-8.62170607489,6.63395566288,7.0947648954,8.79619243271
2.4111730624,13.928888482,7.65638828168,10.9618022397
0.0740521996886,-0.256178698957,2.73801166796,3.39741204679
-2.73306866302,12.1787541201,6.06963505425,8.19302185383
-3.12018952573,14.0436869392,4.46125844053,11.4286316609
-7.96731038844,12.5186197583,3.09288182682,9.94424146791
-12.4644312511,17.3535525774,6.8045052131,12.129851275
-12.0715521139,-12.0515146036,-2.15387140061,-0.504538918005
-7.25867297656,-14.8565817845,-4.64224801433,-0.408929110967
-11.4457938393,-4.48164896539,-3.21062462805,1.77668069608
-7.99291470198,-2.85671614631,0.210998758239,6.73229050312
-6.44003556469,5.48821667277,-3.11737785547,8.97790031016
-5.97715642739,0.913149491849,-1.73575446919,-2.9164898828
-4.4742772901,6.86808231093,1.75586891709,1.22911992424
-3.25139815281,6.61301513001,2.06749230338,0.734729731281
-3.72851901552,-0.912052050908,-0.0308843103376,-0.94966046168
-1.32563987823,19.5528807682,10.5407390759,4.24594934536
-1.87276074094,-18.5521864127,-11.0676375378,-5.4784408476
-3.24988160365,-13.6672535937,-10.3560141515,-9.85283104056
-5.45700246635,-7.98232077458,-8.9243907652,-12.6772212335
-4.74412332906,0.922612044495,-5.66276737892,-10.2916114265
-5.87124419177,-12.8124551364,-12.7511439926,-18.6760016194
-8.47836505448,-25.4775223173,-9.41952060635,-13.5703918124
-3.84548591719,-3.85258949826,-2.83789722006,-2.46478200535
3.94739322011,6.35234332082,-1.27627383378,2.40082780169
2.0602723574,3.4972761399,0.845349552508,1.98643760873
5.91315149469,-7.93779104102,-5.10302706121,-2.82795258423
10.356030632,3.38714177806,2.54859632508,-0.42234277719
11.7989097693,5.04207459714,-3.68978028864,-2.95673297015
10.4417889066,-6.85299258378,-9.20815690235,-3.92112316311
7.23466804385,-16.9080597647,-8.96653351607,-12.3155133561
9.84754718115,-13.5431269456,-6.41491012978,-10.869903549
8.31042631844,-18.9181941265,-6.1232867435,-14.604293742
5.68330545573,-2.97326130746,0.488336642786,-6.74868393494
9.18618459302,12.5916715116,2.70996002907,-1.9930741279
2.5809883721,-13.4786991279,7.8941678779,-3.21061773258
-3.24972970266,-11.7688881672,-2.09575504143,-3.4753939297
-4.25044777742,-2.41907720655,1.50432203923,2.28982987317
-2.79116585218,20.5707337541,10.7443991199,9.22505367605
-2.80188392693,-6.7094552852,-1.68552379944,-2.54972252107
0.937397998308,-14.6996443245,-0.535446718781,-3.6044987182
3.53667992355,-9.58983336385,-2.85536963812,-8.49927491532
6.2259618488,-3.90002240318,-1.22529255746,3.39594888755
2.87524377404,16.9897885575,6.47478452321,9.14117269042
4.56452569928,-5.42040048182,0.0548616038704,-0.1536035067
4.38380762452,-2.10058952115,0.264938684533,2.26162029617
3.21308954976,4.81922143953,-1.6749842348,-0.243155900949
-1.34762852499,-7.51096759979,-5.31490715414,-5.01793209808
0.36165340025,-8.75115663912,0.0351699265211,-3.7227082952
-4.77906467451,-1.05134567844,2.89524700719,-7.11748449233
-4.80978274927,-1.37153471777,-0.0446759121533,1.66773931055
2.83949917598,-0.891723757091,7.48540116851,3.07296311343
3.60878110122,1.95808720358,3.80547824917,1.4281869163
0.328063026462,-7.26210183574,0.855555329836,-1.59658928082
4.7973449517,8.17770912494,5.7756324105,11.3286345221
0.826626876948,-3.43247991439,0.705709491162,-0.466141675075
-0.48409119781,0.637331046286,3.52578657182,5.8590821278
5.89519072743,10.397142007,2.14586365249,5.27430593068
0.824472652677,-6.95304703236,-2.98405926685,-1.18047026645
3.26375457792,4.09676392831,1.70601781381,0.674753536427
3.05303650316,-1.36342511101,0.216094894477,1.7299773393
1.3623184284,-8.04361415034,-0.583828024859,-0.194798857825
6.53160035365,31.8961968103,13.2762490558,15.3004249451
1.77088227889,-2.20399222898,-2.40367386353,3.18564874793
-0.699835795867,-9.36418126831,-4.35359678287,7.3708725508
-0.250553870625,-2.71437030763,-0.213519702209,10.1660963537
0.828728054617,0.465440653043,2.29655737845,3.37132015655
7.09800997986,4.99525161372,0.606634459116,7.12654395943
2.6072919051,27.8950625744,5.94671153978,11.0417677623
2.36657383034,-10.2951264649,-5.87321137956,-9.83300843482
0.965855755587,-2.99531550425,0.926865701107,5.61221536805
2.07513768083,17.0244954564,13.4269427818,11.4874391709
-2.30558039393,-2.8156935829,-3.40298013757,-1.9873370262
-5.73629846868,-6.17588262223,-2.9029030569,-6.52211322332
-2.06701654344,-4.82607166155,-2.54282597624,-6.27688942045
-1.0777346182,-0.476260700876,2.51725110442,1.14833438243
2.01154730704,-14.8364497402,-3.60267181492,-7.5664418147
-3.56917076771,-11.5866387795,-4.20259473425,-8.61121801182
-3.19988884247,-0.82682781885,-0.672517653589,-4.61599420895
-1.54060691723,9.87298314183,4.92755942707,0.689229593929
-2.05132499199,-12.3372058975,-9.06236349226,-10.3055466032
-3.94204306675,-1.85739493682,2.4977135884,-9.57032280032
-5.7327611415,-16.3975839761,-4.61220933094,-19.3150989974
-4.20347921626,7.12222698453,-4.80213225028,-7.59987519457
-3.72419729102,-5.2679620548,0.0979448303897,-9.7846513917
-0.564915365774,-11.2681510941,-2.25197808895,-9.60942758882
-3.75563344053,-5.75834013345,-2.71190100829,-7.25420378595
2.50364848471,2.25147082723,0.888176072376,-0.928979983069
6.85293040995,8.28128178791,6.74825315304,11.8062438198
6.2522123352,-6.63890725142,-1.7616697663,1.75146762268
-5.76850573956,6.18090370926,1.18840731436,-1.91330857444
-0.839223814319,25.6307146699,7.42848439503,10.9919152284
-1.23994188908,-8.07947436939,-4.79143852431,-6.60286096869
-4.63065996383,16.9603365913,0.668638556355,7.68236283418
-2.92137803859,3.39014755196,0.578715637017,-1.54241336294
-0.14209611335,33.0999585126,9.68879271768,13.2028104399
1.98718581189,-13.0902305267,-2.87113020166,1.11803424281
5.34646773714,-12.270419566,-6.33105312099,-1.56674195432
6.50574966238,-10.3606086053,-0.780976040331,-3.53151815145
4.79503158762,8.31920235534,-0.180898959668,3.53370565143
0.984313512863,4.09901331602,-4.440821879,-1.36107054569
5.45359543811,-3.60117572331,-4.15074479834,5.17415325718
4.68287736335,-8.21136476263,-5.19066771768,-4.26062293994
-1.79784071141,3.66844619804,-0.430590637015,-5.70539913707
-0.938558786167,23.9282571587,5.02948644365,9.44982466581
-4.32927686092,-9.56193188061,-8.91043647569,-5.39495153132
-4.63999493568,-4.14212091993,-6.88035939503,-7.39972772844
-5.64071301044,3.57769004075,-5.75028231436,1.38549607443
-10.1214310852,-8.97249899858,-9.9302052337,-9.25928012269
-8.86214915995,-14.0126880379,-6.60012815304,-9.41405631982
0.557132765291,17.0671229228,-4.83005107237,-2.47883251694
-2.92358530947,-10.5230661166,-5.39997399171,-10.4136087141
-3.41430338422,3.45674484412,1.40010308895,-2.65838491119
5.46497854102,20.9965558048,2.70018016961,10.2468388917
0.824260466261,-3.69363323452,-0.739742749724,-5.04793730544
-4.1364576085,4.72617772615,-7.30966566906,-2.36271350256
-2.29717568325,29.3259886868,-1.1395885884,4.32251030031
0.152106241989,-9.1342003525,-1.55951150774,3.36773410318
5.09138816723,1.20561060818,3.12056557293,6.07295790606
1.95067009247,9.30542156885,-3.17935734641,3.21818170893
4.18995201772,33.8852325295,-0.359280265746,19.2634055118
-4.14076605704,-10.8749565098,-3.12920318508,-7.11137068531
0.608515868202,14.1248544509,-5.06912610442,-2.59614688244
-2.07220220656,7.31466541156,1.02095097624,2.00907692043
-2.80292028131,3.12447637223,3.01102805691,2.12430072331
-0.783638356072,4.07428733291,-6.34889486243,-1.81047547381
-5.22435643083,-24.0259017064,-4.77881778177,-9.42525167094
-4.95507450559,17.7839092543,3.96125929889,3.98997213194
1.51420741966,13.5437202149,-3.71866362044,5.19519593481
-4.2865106551,40.2435311756,4.08141346022,17.4404197377
-11.1872287299,8.76334213629,-1.89850945912,-4.30435645944
-5.28794680462,-15.366846903,-12.9184323785,-7.91913265656
-11.5586648794,-28.3170359424,-14.4983552978,-13.4139088537
-10.1193829541,-0.457224981687,-6.22827821713,-3.33868505081
-11.2801010289,52.482585979,-3.64820113646,-0.513461247938
-11.2508191036,15.2423969397,3.2318759442,4.98176255494
-2.8415371784,-23.7777920997,-8.15804697514,5.40698635781
2.32774474684,-22.337981139,-1.64796989447,5.48221016069
1.12702667208,-4.03817017831,4.10210718619,6.50743396356
7.05630859732,-5.00835921763,0.442184266849,11.3826577664
-2.32440947743,-15.488548257,3.84226134751,-5.06211843069
-11.9451275522,-15.8087372963,-6.88766157183,-16.9368946278
-3.51584562695,-7.58892633561,-0.15758449116,-1.44167082494
-4.95656370171,3.71088462507,8.3624925895,-1.93644702206
-0.957281776464,-25.8093044143,9.82256967016,-16.3212232192
5.09200014878,-5.07949345358,2.94264675083,-4.67599941631
5.61128207402,-3.8596824929,-12.2272761685,-0.960775613439
4.45056399926,-3.46987153223,-0.757199087846,-3.13555181056
7.69984592451,10.9599394284,2.95287799282,4.30967199232
4.43912784975,-14.4802496109,-6.42704492652,-12.4451042048
0.518409774992,-7.5004386502,-8.56696784586,-9.93988040193
-4.06230829976,-16.0506276895,7.4431092348,-12.2246565991
1.12697362548,-16.0808167288,5.67318631547,-2.89943279618
-0.583744449281,-27.5810057682,6.91326339613,-3.94420899331
1.83553747596,-11.1611948075,7.07334047679,-3.29898519043
4.83481940121,-11.0813838468,4.01341755746,-3.11376138756
4.62410132645,-17.0815728861,8.35349463812,0.261462415314
3.89338325169,20.1182380745,5.31357171878,15.6166862182
10.2226651769,-4.5219509648,3.49364879945,7.57191002107
17.6719471022,33.7778599959,10.3337258801,26.9471338239
10.2612290274,10.7176709566,8.79380296077,14.7523576268
4.83051095266,18.8474819172,13.2438800414,11.5975814297
4.6397928779,-3.24270712209,2.7239571221,-1.51719476743
4.95128205128,37.8514529915,2.32179487179,14.6228205128
10.1339794872,8.54564444445,-5.76428717949,16.299425641
2.32667692308,22.7398358974,0.169630769227,2.21603076923
-0.560625641023,-25.4459726496,-1.43645128205,-7.93736410257
5.56207179488,1.59821880342,6.76746666666,4.48924102564
-4.41523076923,-9.43758974359,-0.0186153846171,-7.39415384615
-4.98253333333,-16.8333982906,-7.4546974359,-4.84754871795
0.690164102567,-0.939206837604,-2.65077948718,0.539056410256
-5.43713846154,-17.7750153846,1.62313846154,-5.36433846154
-0.794441025639,8.86917606838,-1.16294358974,5.54226666667
1.58825641026,22.3733675214,-3.18902564103,-3.56112820512
-5.87904615384,-31.9624410256,2.49489230769,-14.0845230769
-0.986348717946,-10.7082495726,6.85881025641,-4.74791794872
1.57634871795,0.915941880345,8.67272820513,-3.31131282051
1.29904615385,16.3401333333,10.4666461538,1.89529230769
-7.48825641026,-20.0256752137,-6.15943589744,-12.2281025641
-2.89555897436,-18.4814837607,-7.62551794872,-3.85149743589
-9.11286153846,-10.0072923077,-1.0316,-3.91489230769
-7.86016410256,-6.8731008547,-0.377682051283,-10.3082871795
1.78253333333,21.8210905983,6.06623589744,6.67831794872
-1.08476923077,-1.24471794872,-5.86984615385,5.95492307693
-2.42207179487,-9.75052649572,-6.91592820513,0.931528205132
-1.71937435897,-8.67633504273,2.20798974359,0.50813333334
9.76332307692,9.13785641026,2.08190769231,6.31473846154
7.72602051282,14.7720478632,2.10582564103,9.33134358975
8.23871794872,23.1962393162,-2.18025641025,6.22794871796
