35.5934411337,9.06132994187,-0.186507994188,13.6017696221
14.905771293,6.70642710814,-2.01884645097,7.89764849615
7.66810145235,5.09152427441,-2.82118490776,5.82352737021
6.26043161166,3.74662144068,-5.58352336454,2.99940624427
8.43276177097,5.02171860695,-0.885861821326,1.93528511833
9.93509193028,4.98681577321,-0.458200278111,-1.1788360076
10.5474220896,5.03191293949,0.0594612651039,2.83704286646
9.9897522489,2.52701010575,0.71712280832,2.26292174052
10.9820824082,5.00210727203,1.16478435154,2.69880061458
16.7944125675,11.7272044383,1.82244589475,9.57467948864
20.0667427268,12.4823016046,-0.499892562033,11.3305583627
17.5690728861,14.2873987708,-0.362231018818,14.8064372368
17.5114030455,12.5424959371,-0.534569475602,10.9523161108
14.6937332048,11.7975931034,-0.0569079323859,11.2581949849
15.2360633641,14.8326902696,-0.439246389171,11.5340738589
11.9783935234,16.9077874359,0.458415154045,12.599952733
8.7007236827,14.7128846022,0.91607669726,12.5858316071
4.95305384201,10.1479817685,0.783738240476,8.28171048114
1.55538400133,11.6630789347,0.811399783692,7.7175893552
4.44771416064,10.068176101,1.57906132691,5.49346822926
7.92004431995,8.50327326726,2.16672287012,7.10934710332
1.97237447926,3.06837043353,1.80438441334,4.46522597738
0.594704638574,-2.5465324002,1.70204595655,-3.27889514856
-1.86296520212,-2.87143523393,3.57970749977,-2.3330162745
-2.8406350428,-4.52633806766,3.98736904298,-3.94713740043
-4.34830488349,-6.02124090139,1.6950305862,-7.85125852637
-4.16597472418,-5.71614373512,2.75269212942,-7.61537965231
-6.55364456487,-2.64104656885,4.94035367263,-3.95950077825
-7.75131440556,-1.48594940258,5.72801521585,-3.86362190419
-6.91898424625,0.279147763693,4.46567675906,-4.06774303013
-4.23665408694,1.32424492996,2.16333830228,-1.89186415606
-9.41432392763,-1.47065790377,2.68099984549,-4.805985282
-11.1319937683,-4.3555607375,3.46866138871,-5.29010640794
-12.489663609,-6.11046357123,2.11632293192,-6.97422753388
-10.0473334497,-5.93536640496,0.823984475141,-11.1683486598
-0.635003290376,-1.85026923869,-0.828353981644,-7.33246978576
4.77732686893,-0.0851720724204,1.60930756157,-2.4465909117
0.849657028248,-0.60007490615,3.08696910479,-0.290712037633
-7.90801281244,5.78502226012,-0.415369351997,-0.594833163572
-7.89568265313,8.15011942639,0.512292191218,5.90104571049
-2.21335249382,7.43521659266,3.57995373443,4.70692458455
-2.79102233451,10.7803137589,6.25761527765,7.67280345861
-7.2986921752,8.4054109252,6.42527682086,7.25868233267
-0.706362015884,6.97050809147,5.06293836408,6.06456120674
2.85596814343,6.31560525774,4.0005999073,5.6704400808
4.04829830274,2.65070242401,2.32826145051,2.88631895486
1.50062846205,2.68579959028,1.63592299373,4.44219782892
-3.56704137864,-2.72910324345,-0.616415463058,0.768076702981
-8.74471121933,-7.60400607718,-2.23875391984,-5.23604442296
-11.47238106,-14.0889089109,-0.921092376626,-8.87016554889
-12.6700509007,-16.1538117446,-1.98343083341,-15.7142866748
-16.7777207414,-16.7987145784,-2.8757692902,-16.1084078008
-17.9553905821,-18.1736174121,-2.69810774698,-15.5325289267
-17.2830604228,-19.4685202458,-3.20044620376,-17.1366500526
-13.6307302635,-17.0134230796,-3.64278466055,-12.2907711786
-9.95840010415,-14.6283259133,-3.41512311733,-8.37489230452
-7.74606994484,-16.313228747,-3.76746157412,-7.03901343046
-14.4637397855,-14.3081315808,-3.6798000309,-5.6931345564
-13.7914096262,-12.0330344145,-1.97213848769,-4.89725568234
-9.6090794669,-11.4979372482,-1.07447694447,-4.14137680828
-10.6967493076,-7.92284008194,-1.17681540125,-2.16549793422
-5.77441914828,-6.33774291568,-0.29915385804,1.17038093984
-6.61208898897,-6.6126457494,-1.21149231482,2.10625981391
-8.35975882966,-5.25754858313,-1.61383077161,0.412138687969
-6.53742867034,-2.31245141687,-1.58616922839,0.58801756203
-7.80509851103,-3.8773542506,-2.73850768518,-4.58610356391
-9.03276835172,-6.25225708432,-4.12084614196,-3.73022468985
-10.9504381924,-6.74715991805,-3.62318459875,-4.05434581579
-8.0581080331,-8.96206275179,-3.26552305553,-6.09846694172
-6.71577787379,-9.36696558552,-4.19786151231,-8.52258806766
-9.03344771448,-5.89186841925,-3.3701999691,-5.3167091936
-3.30111755517,-5.75677125297,-2.20253842588,-5.97083031954
0.831212604146,-7.93167408671,-2.71487688267,-4.86495144548
-1.19645723654,-9.45657692044,-3.15721533945,-4.78907257142
-3.49412707723,-6.71147975417,-3.23955379624,-6.20319369735
-3.71179691792,-4.6763825879,-3.59189225302,-5.07731482329
-3.96946675861,-7.03128542163,-2.13423070981,-2.05143594923
-7.3171365993,-6.83618825536,-1.23656916659,-2.01555707517
-2.62480643999,-2.37109108909,-0.578907623374,2.02032179889
-6.57247628067,-2.66599392282,-0.931246080159,1.60620067295
-3.53014612136,-4.59089675655,-2.40358453694,-2.39792045299
1.26218403795,-5.48579959028,-4.29592299373,-2.32204157892
1.08451419726,-6.19070242401,-4.44826145051,-0.946162704862
-2.81315564343,-7.46560525774,-2.9505999073,-3.4402838308
-0.150825484117,-6.82050809147,-2.65293836408,-6.37440495674
-5.26849532481,-3.6054109252,-0.655276820866,-4.62852608268
-12.2761651655,-6.41031375893,0.13238472235,-8.21264720861
-13.4138350062,-9.33521659266,0.110046265566,-11.1467683346
-14.3715048469,-8.20011942639,-0.46229219122,-11.3808894605
-11.4191746876,-7.06502226012,-1.624630648,-8.22501058643
-10.5168445283,-4.56992509385,-1.28696910479,-5.00913171237
-8.56451436894,-6.27482792758,0.370692438428,-5.35325283831
-5.54218420963,-8.12973076131,-0.0416460183569,-6.70737396425
-8.03985405032,-4.42463359504,0.836015524858,-6.47149509018
-4.367523891,-5.85953642877,-1.50632293193,-7.53561621612
-2.68519373169,-3.9844392625,-1.30866138871,-7.07973734206
-3.33286357238,-0.969342096232,0.379000154506,-4.383858468
-2.07053341307,-0.394244929961,-0.423338302279,-2.89797959394
1.59179674624,-2.45914776369,-1.33567675906,-4.98210071988
3.16412690555,-1.81405059742,-1.95801521585,-2.82622184581
1.02645706487,-0.118953431152,-3.09035367263,-1.36034297175
2.34878722417,-0.883856264882,-3.55269212942,-1.12446409769
-2.24888261651,-2.13875909861,-4.3350305862,-1.11858522363
-2.6265524572,-2.68366193234,-5.24736904299,-1.95270634957
-0.0542222978875,-3.28856476607,-3.93970749977,-4.24682747551
3.95810786142,-2.3134675998,-3.33204595655,-0.810948601445
-0.779561979263,-3.85837043353,-1.96438441334,-0.625069727384
-0.727231819954,-5.00327326726,-1.60672287012,-2.50919085332
-7.09490166064,-3.058176101,-0.999061326907,0.156688020739
-2.61257150133,-1.23307893473,-1.28139978369,3.5925668948
2.48975865798,-0.897981768452,-2.91373824048,3.26844576886
4.08208881729,1.08711539782,-1.74607669726,5.33432464292
9.5344189766,2.13221256408,0.451584845954,5.88020351698
9.96674913591,4.69730973035,2.37924638917,6.90608239105
10.2190792952,9.07240689663,2.18690793239,7.63196126511
11.3214094545,10.8575040629,2.0545694756,5.60784013917
8.66373961385,8.68260122916,3.02223101882,4.94371901323
10.2560697732,11.8776983954,2.86989256203,5.96959788729
13.9083999325,17.7027955617,3.36755410525,12.5454767614
16.4607300918,18.057892728,3.88521564846,14.3213556354
15.3430602511,16.9829898942,4.51287719168,12.1272345095
11.3453904104,13.3280870605,5.88053873489,9.09311338354
11.2877205697,14.2931842268,6.62820027811,8.2789922576
16.080050729,15.5582813931,7.07586182133,11.1948711317
21.8223808883,16.1333785593,6.61352336454,12.0407500057
20.6047110477,19.4384757256,5.61118490776,14.5966288798
14.777041207,18.1835728919,5.23884645097,11.1925077538
19.3793713663,20.7486700581,5.03650799419,15.7183866279
15.2842405523,2.23639898257,2.80321584302,8.06662790698
15.2427835161,0.345513270244,0.984700632891,5.16457717222
13.1613264798,-2.26537244208,-0.433814577235,2.42252643746
20.0398694436,-3.4262581544,-1.75232978736,2.77047570271
15.2984124073,-2.98714386673,-1.18084499749,1.90842496795
12.6369553711,0.701970420949,-0.789360207615,5.8263742332
12.2354983348,2.76108470863,-0.0578754177404,7.17432349844
14.8440412985,6.3501989963,0.183609372134,7.60227276368
9.39258426228,6.05931328398,0.785094162006,6.36022202893
12.491127226,2.31842757165,1.86657895188,4.48817129418
14.9996701898,0.59754185933,1.23806374175,1.12612055942
13.1182131535,-1.92334385299,0.649548531627,-0.345930175336
15.0167561172,0.185770434684,-0.628966678499,1.90201908991
8.19529908099,1.73488472236,0.722518111375,3.40996835515
7.34384204473,2.36399901003,1.45400290125,2.9879176204
13.4923850085,2.86311329771,0.805487691123,1.34586688564
5.44092797222,1.46222758539,-0.773027519003,1.44381615089
-2.74052906404,-0.158658126937,-1.67154272913,-0.0882345838691
-4.55198610029,-5.67954383926,-3.35005793926,-4.96028531863
-1.72344313655,-10.0504295516,-5.72857314938,-9.46233605338
5.09509982719,-10.1813152639,-5.06708835951,-10.5343867881
0.553642790932,-7.80220097623,-3.79560356964,-7.12643752289
2.12218575467,-3.77308668856,-1.34411877976,-2.71848825765
0.350728718418,-4.68397240088,1.01736601011,-2.6205389924
-1.71072831784,-4.7948581132,0.718850799986,-3.16258972716
-7.88218535409,-7.17574382553,-1.45966441014,-5.81464046191
-4.14364239035,-10.0966295379,-0.818179620266,-10.4366911967
-4.73509942661,-5.30751525017,-0.216694830392,-7.14874193143
-6.04655646287,-3.9584009625,-0.515210040519,-4.63079266618
-1.64801349913,-5.18928667482,-0.703725250645,-4.09284340093
0.290529464619,-2.68017238715,0.657759539229,-0.97489413569
2.43907242836,-2.22105809947,1.3392443291,-0.806944870445
-1.3023846079,0.848056188206,1.89072911898,2.4410043948
0.156158355847,-0.242829524119,1.37221390885,-0.481046339957
-8.20529868041,-0.283715236441,-0.736301301276,-2.03309707471
-9.66675571667,0.615399051236,-2.0848165114,0.334852190532
-8.99821275292,-0.855486661087,-1.64333172153,-2.37719854422
-8.97966978918,-1.87637237342,0.158153068344,-4.46924927898
-12.8911268254,-4.83725808574,0.709637858217,-7.95130001374
-13.2325838617,-5.77814379806,1.69112264809,-6.91335074849
-11.484040898,-2.94902951038,2.35260743797,-5.00540148324
-8.24549793421,0.830084777292,3.75409222784,-1.447452218
-5.96695497047,4.32919906497,3.59557701771,2.70049704724
0.0615879932739,4.28831335264,4.25706180759,4.89844631249
-0.769869042982,5.18742764032,3.17854659746,5.81639557773
-2.51132607924,3.76654192799,1.14003138733,5.24434484298
0.0572168845029,0.635656215672,-0.788483822792,1.85229410822
-4.14424015176,1.42477050335,-1.20699903292,-0.329756626534
1.08430281199,2.24388479103,0.174485756955,3.00819263871
-6.42715422427,-0.9270009213,-1.14402945317,-3.48385809604
-6.85861126053,-0.257886633623,1.2174553367,-3.5859088308
-7.55006829678,0.831227654053,1.91894012658,-2.77795956556
-6.10152533304,2.17034194173,1.40042491645,-2.77001030031
-5.5929823693,3.58945622941,2.17190970632,-1.64206103507
-8.43443940556,2.76857051708,3.0233944962,-0.334111769822
-12.0758964418,2.34768480476,1.98487928607,0.453837495423
-13.0373534781,-0.933200907566,0.566364075945,-3.47821323933
-12.1288105143,1.68591338011,0.897848865819,-1.88026397409
-10.3402675506,0.155027667784,1.20933365569,-0.732314708845
-8.55172458684,-1.91585804454,0.660818445565,-0.5243654436
-8.3531816231,-1.77674375686,-0.14769676456,0.0935838216465
-9.67463865936,2.11237053081,1.20378802531,2.29153308689
-8.62609569561,5.03148481849,-0.384727184814,3.60948235213
-4.08755273187,2.82059910617,-0.173242394939,2.12743161738
-11.3790097681,-0.0502866061579,-1.09175760507,-2.24461911738
-13.7304668044,4.88882768152,-0.270272815193,0.443330147868
-9.04192384064,7.0879419692,0.141211974682,3.22127941311
-0.1433808769,7.49705625687,-0.357303235444,4.22922867836
-2.87483791316,7.81617054455,0.24418155443,5.5171779436
-3.50629494942,8.08528483222,-0.364333655697,5.18512720885
-2.31775198567,8.1343991199,1.27715113418,4.95307647409
-2.45920902193,6.69351340758,-0.45136407595,3.08102573934
-4.74066605819,9.87262769525,-1.00987928608,3.93897500458
-3.53212309444,8.89174198293,-0.418394496202,4.32692426982
-2.4335801307,4.1008562706,-1.53690970633,-0.0251264649323
-0.605037166959,6.89997055828,-1.09542491646,0.182822800312
-0.186494203212,7.41908484595,0.256059873419,0.730772065557
-4.96795123947,6.27819913363,-0.222455336707,0.288721330802
-7.33940827573,2.86731342131,-0.940970546833,-3.19332940395
-13.360865312,0.886427708985,2.00051424304,-4.29538013871
-16.2223223482,-1.29445800334,0.921999032914,-5.31743087346
-10.5937793845,0.584656284336,-0.376516177213,-4.52948160822
-8.37523642076,2.51377057202,-1.34503138734,-1.73153234298
-9.40669345701,0.932884859692,-1.53354659746,-1.11358307773
-7.44815049327,2.81199914736,-0.292061807591,0.924366187513
-8.62960752953,2.40111343504,-0.450577017717,0.802315452758
-6.80106456579,-0.679772277283,-0.749092227844,-2.139735282
-4.45252160204,-0.760657989606,-0.95760743797,-0.461786016755
-5.6839786383,-0.531543701931,0.063877351904,2.85616324849
-2.04543567456,-2.45242941425,-1.30463785822,0.584112513738
-3.54689271082,0.0366848734229,-0.0631530683495,3.74206177898
-3.20834974707,-0.604200838901,-0.801668278476,1.45001104423
1.86019321667,0.854913448773,-2.2901834886,4.27796030947
2.54873618041,-0.90597226355,-2.06869869873,3.61590957472
2.52727914415,-4.49685797587,-1.51721390885,1.45385883996
2.9258221079,-5.94774368819,-2.26572911898,0.521808105203
3.50436507164,-3.92862940052,-1.75424432911,1.82975737045
-0.497091964615,-1.86951511284,-2.68275953923,-0.892293364308
2.76145099913,-4.50040082517,-2.44127474936,-3.99434409906
5.21999396287,-6.37128653749,-1.39978995949,-4.18639483382
3.85853692661,-3.88217224982,-1.35830516961,-1.53844556857
13.8270798904,-3.25305796214,-1.78682037974,2.32950369667
14.6056228541,-3.35394367446,-0.655335589865,1.98745296192
-5.13583418216,-1.62482938679,-2.22385079999,-3.79459777284
-9.94729121842,1.21428490089,-0.382366010117,-0.836648507597
-10.0787482547,0.0133991885632,1.17911877976,-1.85869924235
-6.71020529093,-0.957486523759,-2.84939643037,-4.29074997711
-5.03166232719,2.55162776392,0.512088359504,1.81719928814
-4.14311936345,-0.699257948407,1.47357314938,-1.79485144662
2.2254236003,0.579856339271,1.01505793925,-1.82690218137
6.83396656404,0.698970626945,1.76654272912,1.15104708387
11.6325095278,2.64808491462,-0.091972481001,2.49899634912
11.2910524915,6.0071992023,1.43951230887,5.23694561436
8.06959545527,5.73631348998,2.17099709875,6.20489487961
12.048138419,5.05542777765,0.36248188862,8.11284414485
13.6766813828,2.66454206533,1.44396667849,4.45079341009
10.0352243465,0.323656353001,1.55545146837,0.998742675338
12.7637673102,-0.827229359322,0.00693625824078,0.896691940583
9.58231027398,0.881884928356,1.24842104812,2.57464120583
5.76085323772,0.55099921603,2.39990583799,3.52259047107
9.12939620147,-1.49988649629,0.321390627862,3.13053973632
13.1579391652,-6.12077220862,-2.21712458226,-0.70151099844
9.90648212895,-5.69165792094,-0.0756397923906,-2.82356173319
5.6150250927,-7.54254363327,1.57584499748,-5.31561246795
10.6435680564,-8.20342934559,1.47732978736,-3.11766320271
12.4921110202,-7.86431505791,-0.681185422769,-3.77971393746
7.91065398392,-7.18520077024,0.480299367104,-4.78176467222
13.1391969477,-4.05608648256,1.88178415698,-4.21381540697
-75.318059593,39.4653670058,8.49003633721,6.48904433139
-70.7423408888,35.040555616,8.14198212324,5.74110047381
-66.7366221846,35.6357442261,8.50392790926,4.89315661623
-64.5709034803,37.2909328363,9.49587369529,7.85521275865
-58.6951847761,36.9861214464,8.68781948132,6.37726890107
-61.2394660719,33.5113100565,4.77976526735,3.01932504349
-56.4837473677,32.5364986667,3.81171105338,4.04138118591
-55.0980286635,32.6316872768,4.63365683941,2.94343732832
-50.9423099592,30.156875887,2.94560262543,2.09549347074
-44.706591255,31.0220644971,2.87754841146,2.95754961316
-51.2108725508,29.4172531073,3.56949419749,1.25960575558
-48.9151538466,26.8524417174,4.97143998352,2.751661898
-44.6694351424,24.8076303276,3.22338576955,1.09371804042
-36.2237164381,24.9028189377,3.62533155557,2.94577418284
-35.6179977339,24.1280075478,2.6372773416,6.24783032526
-48.6722790297,24.113196158,2.22922312763,2.57988646768
-50.3465603255,27.0783847681,4.61116891366,3.8619426101
-45.4808416213,25.9835733783,5.86311469969,6.29399875252
-37.945122917,27.9387619884,5.20506048571,8.77605489494
-37.4094042128,28.7739505986,6.20700627174,8.56811103735
-30.7936855086,30.1691392087,7.98895205777,8.25016717977
-26.9979668044,27.8743278189,6.4208978438,11.2622233222
-18.4422481002,24.839516429,4.05284362983,13.5142794646
-21.4365293959,24.7347050391,4.29478941586,11.216335607
-19.5808106917,26.3598936493,6.27673520188,12.2383917494
-15.9350919875,22.3450822594,5.59868098791,9.68044789187
-16.2093732833,21.1202708696,4.05062677394,9.90250403429
-11.1836545791,21.2854594797,2.37257255997,12.6645601767
-8.87793587483,16.5106480899,0.914518345997,9.46661631913
-10.0222171706,16.8258367,1.24646413203,9.90867246154
-7.98649846639,11.3410253102,1.14840991805,8.94072860396
-8.93077976217,7.0062139203,0.520355704081,5.81278474638
-6.24506105795,5.30140253044,0.65230149011,4.9348408888
-4.47934235373,4.72659114059,0.174247276139,5.10689703122
