0.616398982573,4.97197311048,12.4457194767,7.05951671512
-7.99294883605,2.44042875047,13.3555740421,-3.09142055598
-13.0922966547,-4.66111560954,2.2454286074,-17.6423578271
-5.5116444733,-13.6626599695,-1.41471682728,-14.3832950982
-5.27099229192,-15.4442043295,-1.91486226195,-16.8242323693
1.38965988946,0.274251310439,-1.24500769663,-5.3351696404
-3.23968792917,3.82270695043,0.654846868703,-4.9761069115
-0.0290357477934,3.94116259042,0.184701434029,-4.33704418261
-8.88838356642,-11.8303817696,0.874555999357,-11.4879814537
-17.177731385,-7.80192612958,5.17441056468,-9.18891872482
-15.1070792037,-4.3334704896,3.20426513001,-8.80985599592
-10.6064270223,0.994985150399,0.944119695338,-5.86079326702
-3.90577484091,-3.70655920961,-1.11602573934,-7.90173053813
-6.34512265954,-5.37810356962,-1.26617117401,-5.60266780923
-5.03447047815,-6.30964792963,0.0736833913179,-8.39360508034
-6.53381829678,-5.65119228964,0.623537956644,-7.53454235144
-2.80316611539,-4.12273664964,1.12339252197,-6.16547962255
-2.22251393402,-10.1042810096,-0.536752912702,-9.65641689365
-6.85186175264,-9.57582536965,-0.666898347376,-5.74735416476
2.97879042874,-11.3573697297,-0.647043782048,-5.63829143586
1.80944261011,-3.12891408968,1.58281078328,-5.41922870696
1.07009479149,2.75954155032,2.99266534861,-1.47016597807
2.65074697287,1.31799719032,2.79251991393,-4.22110324917
-5.79860084576,2.7564528303,2.27237447926,1.72795947972
-1.10794866438,0.234908470302,3.53222904459,9.22702220862
-7.09729648301,5.63336411029,6.83208360991,5.71608493751
-1.42664430163,3.14181975028,-2.28806182476,-1.36485233359
2.08400787975,-2.07972460973,-3.84820725943,-1.07578960469
-0.0253399388748,-5.80126896974,-1.79835269411,-0.586726875797
0.395312242501,-8.81281332974,-4.18849812878,0.682335853098
5.22596442388,5.34564231025,-2.84864356345,2.89139858199
0.666616605253,2.80409795025,-3.31878899813,1.59046131089
1.88726878663,0.15255359024,-5.2389344328,3.92952403979
4.76792096801,-2.38899076977,-4.09907986747,2.34858676868
4.11857314938,-1.33053512978,-1.88922530214,4.95764949758
4.55922533076,8.64792051022,-1.08937073682,9.13671222647
5.65987751214,4.24637615021,-1.32951617149,6.87577495537
1.63052969352,6.1848317902,-0.059661606163,8.70483768426
4.93118187489,1.16328743019,0.190192959162,9.93390041316
6.00183405627,3.00174307018,1.04004752449,8.90296314206
8.32248623764,2.61019871018,-1.71009791018,8.58202587095
4.65313841902,1.89865435017,-3.15024334486,6.41108859985
9.1037906004,6.71710999017,-0.690388779529,7.68015132874
-1.22555721823,6.56556563016,1.5194657858,6.73921405764
3.82509496315,-2.25597872985,-1.29067964888,2.78827678653
2.36574714453,3.00247691014,-0.980825083549,6.17733951543
7.0163993259,12.5409325501,-0.850970518222,11.3564022443
9.62705150728,10.6893881901,-2.48111595289,9.25546497322
4.50770368866,0.997843830126,-2.01126138757,3.86452770212
3.31835587003,-4.11370052989,-3.08140682224,1.49359043101
5.61900805142,3.8747551101,-2.95155225691,4.24265315991
10.3296602328,8.2932107501,-0.581697691587,7.50171588881
9.05031241417,13.5916663901,1.13815687374,12.6207786177
2.21096459555,2.72012203008,-1.16198856093,5.3298413466
12.0216167769,1.22857767007,1.26786600439,7.75890407549
-2.6277310417,6.80703331007,0.66772056972,8.56796680439
6.56292113968,13.6754889501,0.957575135048,9.94702953328
6.46357332105,6.79394459006,-0.00257029962631,5.51609226218
3.42422550243,3.09240023005,2.4072842657,2.58515499107
-1.3351223162,0.850855870034,0.887138831027,-1.05578228003
-2.57447013482,12.42931151,-0.413006603645,1.42328044887
3.21618204656,7.07776715003,-0.773152038319,3.52234317776
4.93683422794,0.93622279002,-2.49329747299,-1.28859409334
4.25748640931,-0.19532156999,-4.66344290766,0.210468635552
3.44813859069,-2.55686593,-5.95358834234,-0.710468635549
1.58879077207,-2.78841029001,-2.36373377701,-0.271405906653
-6.84055704655,1.53004534998,-0.773879211683,1.78765682224
-5.69990486518,7.97850098997,0.495975353642,6.98671955114
2.7007473162,7.98695662997,1.10582991897,8.99578228003
4.64139949757,4.41541226996,-1.5343155157,8.52484500893
0.792051678953,3.04386790995,-1.71446095038,7.90390773782
13.3327038603,12.0123235499,-0.704606385048,7.25297046672
7.2033560417,5.09077918994,-2.94475181972,2.84203319562
5.05400822308,-12.4007651701,-5.22489725439,-3.05890407549
-1.74533959555,-6.07230953007,-5.49504268907,-2.25984134659
-1.47468741416,-2.46385389008,-4.33518812374,-3.3807786177
2.69596476721,-2.33539825008,-5.92533355841,-3.0017158888
2.04661694859,-1.63694261009,-4.64547899309,-0.0126531599053
-2.98273087003,5.39151302989,-2.45562442776,2.69640956899
-2.36207868866,-7.66003133012,-3.55576986243,-1.22452770211
3.35857349272,-4.96157569013,-3.71591529711,-0.425464973219
4.8992256741,-2.47312005013,-4.35606073178,-0.626402244323
-0.98012214453,-3.20466441014,-4.02620616645,-3.03733951543
2.28053003686,-7.73620877014,-4.13635160113,0.06172321347
3.73118221823,-6.71775313015,-3.5564970358,0.550785942365
2.9618343996,1.33070250984,0.483357529527,2.89984867126
5.31248658099,4.22915814984,1.51321209485,3.78891140016
1.37313876236,-0.77238621017,0.423066660182,-2.14202587095
-9.11620905626,-0.343930570176,1.06292122551,-1.54296314205
-5.22555687489,-8.42547493018,-0.567224209166,-2.59390041316
-3.21490469351,-1.3470192902,0.122630356162,-0.784837684259
-6.82425251213,4.20143634979,1.55248492149,-1.30577495536
4.97639966924,-0.130108010213,-0.637660513185,-0.276712226469
4.75705185062,0.958347629778,1.71219405214,3.97235050243
3.53770403199,0.946803269777,2.56204861747,3.85141323132
10.4883562134,4.10525890977,2.6019031828,6.71047596022
9.34900839475,11.4437145498,4.01175774812,9.40953868911
1.87966057613,14.2221701898,5.55161231345,10.418601418
2.5703127575,8.26062582975,5.04146687877,5.1176641469
6.10096493888,-0.0709185302621,3.8313214441,2.8567268758
4.19161712026,-0.862462890262,1.75117600943,4.4457896047
7.25226930164,6.74599274973,2.44103057476,1.06485233359
-1.15707851699,-0.955551610285,3.42088514008,-3.76608493751
-1.15642633561,-5.55709597029,3.98073970541,-3.58702220861
-1.33577415423,-2.2586403303,5.14059427074,-1.40795947972
0.0248780271431,-5.76018469031,5.14044883606,-6.94889675082
-2.55446979148,-2.78172905032,3.13030340139,-6.05983402193
-1.61381761011,-2.37327341032,2.73015796672,-5.23077129303
-4.54316542873,-7.14481777033,3.20001253204,-6.29170856414
-5.73251324736,-4.31636213033,4.30986709737,-4.23264583524
-4.66186106598,-2.98790649034,3.1297216627,-4.95358310635
-4.0812088846,4.86054914965,4.06957622802,0.545479622551
-9.81055670323,0.689004789638,4.32943079335,-1.44545764855
-6.05990452185,-2.61253957036,3.94928535868,-5.27639491966
-0.739252340471,-3.51408393037,1.44913992401,-6.99733219076
2.90139984091,1.45437170962,0.998994489331,-2.01826946187
3.32205202229,0.792827349615,-2.15115094534,-0.229206732971
-0.187295796335,1.25128298961,-2.19129638001,-0.390144004075
-5.48664361495,-4.33026137041,-2.51144181469,-4.23108127518
-2.83599143358,-7.27180573042,-2.04158724936,-7.05201854628
-3.6853392522,-4.22335009041,-3.02173268403,-5.11295581739
-3.01468707083,-3.03489445042,-3.34187811871,-5.02389308849
-8.45403488945,1.15356118957,-1.44202355338,-2.03483035959
-11.4933827081,-10.4779831704,-0.862168988053,-6.5257676307
-9.7727305267,-6.42952753045,1.55768557727,-4.74670490181
-10.1120783453,-4.41107189046,0.547540142601,-7.00764217291
-4.64142616394,-0.08261625046,-0.412605292071,-7.56857944401
-8.62077398256,-4.79416061047,-1.64275072675,-10.0895167151
0.264226017462,2.09775436047,4.52090479651,5.1329505814
-0.784184530057,3.56436944928,4.33176776231,2.79629978484
1.36740492242,-2.65901546191,-0.767369271885,-0.960351011714
4.8589943749,-0.192400373104,-0.586506306083,-2.32700180827
-3.60941617262,-0.425785284286,0.92435665972,-0.903652604828
-5.89782672014,-6.71917019547,0.0952196255239,-2.00030340138
-0.0362372676536,-9.43255510666,0.876082591327,-0.976954197942
0.775352184828,-11.2059400179,-0.813054442871,-3.4936049945
0.866941637309,-0.489324929047,0.0378085229313,0.0397442089434
-5.84146891021,2.89729015977,-0.331328511265,2.51309341238
0.940120542276,-3.30609475142,-0.400465545461,2.81644261583
3.13170999475,-8.71947966261,-1.49960257966,-0.31020818073
3.42329944723,-0.482864573794,-0.918739613855,1.82314102271
5.92488889972,7.17375051501,0.752123351947,4.66649022615
13.9964783522,3.38036560383,-0.867013682249,6.6498394296
9.83806780467,3.52698069264,1.32384928355,3.31318863304
6.79965725716,-0.0364042185538,1.02471224936,1.27653783648
4.32124670964,1.76021087026,-1.81442478484,0.869887039926
8.62283616212,2.73682595907,-0.903561819037,-1.99676375663
-1.2355743854,-0.446558952113,1.63730114677,-3.48341455319
-6.60398493292,0.390056136697,3.75816411257,1.58993465025
-11.5323954804,-3.1533287745,3.21902707837,-2.95671614631
1.53919397204,7.86328631432,5.57989004418,5.44663305714
13.9307834245,16.4299014031,6.25075300998,12.7699822606
10.402372877,1.95651649194,3.83161597578,2.93333146402
1.23396232948,-0.616868419253,-0.617521058417,-0.563319332534
-14.994448218,-1.75025333044,-1.33665809261,1.69002987091
-12.9728587655,-0.533638241621,-1.41579512681,-2.46662092565
-7.79126931307,1.33297684718,-3.00493216101,-1.89327172221
4.51032013941,3.019591936,-2.8740691952,2.37007748124
2.21190959189,-0.523792975197,-4.4632062294,4.26342668468
0.823499044367,-3.07717788638,-4.6223432636,3.14677588812
4.64508849685,4.82943720243,-3.7614802978,6.09012509156
6.14667794933,2.89605229124,-3.14061733199,2.10347429501
-1.00173259819,3.80266738006,-1.21975436619,2.34682349845
-0.220143145707,-6.23071753114,-3.34889140039,-0.64982729811
-2.15855369323,-3.89410244233,-1.53802843458,0.0535219053327
3.74303575926,7.48251264649,0.42283453122,5.41687110878
4.57462521174,11.9591277353,1.31369749702,8.63022031222
-1.75378533578,8.71574282411,1.99456046283,6.30356951566
-2.1321958833,-2.98764208708,-0.664576571371,-2.1130812809
-4.85060643082,-1.42102699827,0.266286394432,-2.51973207745
-6.83901697834,0.00558809054928,2.11714936023,-3.72638287401
-4.66742752586,1.74220317935,0.438012326038,-3.57303367057
-1.91583807338,2.99881826817,0.788875291841,-2.39968446713
2.2457513791,-0.694566643026,-0.690261742355,0.723664736315
1.65734083159,-0.567951554214,-0.309398776551,1.63701393976
2.35893028407,7.7286635346,2.16146418925,3.9603631432
4.48051973655,16.0552786234,1.78232715506,6.99371234664
4.86210918903,10.0318937122,-0.816809879141,3.72706155009
-1.30630135849,-2.24149119897,-0.93594691334,-1.84958924647
-4.80471190601,-1.63487611015,-0.205083947536,-2.04624004303
-4.63312245353,3.30173897866,1.53577901827,0.0471091604122
1.04846699895,9.98835406746,3.09664198407,3.88045836386
-1.40994354857,3.52496915628,1.03750494987,2.7638075673
-1.55835409609,-2.69841575491,-0.421632084324,-0.352843229261
-2.5667646436,-5.1918006661,-1.16076911852,-5.69949402582
-9.66517519113,-2.56518557728,-1.33990615272,-6.08614482237
-9.73358573864,-2.46857048848,-2.66904318692,-9.03279561893
-5.88199628616,-2.20195539967,-2.78818022111,-7.67944641549
-5.08040683368,-10.2353403109,-2.11731725531,-9.51609721205
-7.8488173812,-17.398725222,-3.43645428951,-13.6127480086
-6.65722792872,-9.28211013322,-1.7455913237,-10.6193988052
-3.82563847624,-2.69549504442,-1.8647283579,-8.36604960172
-2.14404902376,-2.45887995561,-0.393865392096,-6.14270039828
-9.45245957128,-11.7922648668,-2.79300242629,-10.4593511948
-4.82087011879,-11.595649778,-2.63213946049,-10.3960019914
-1.37928066632,-6.15903468918,0.888723505312,-10.6926527879
-3.27769121384,0.91758039964,2.37958647112,-5.97930358451
-1.39610176135,6.67419548845,3.74044943692,1.23404561894
1.10548769113,6.80081057726,4.99131240272,4.11739482238
-4.41292285639,2.29742566607,5.52217536853,0.0907440258216
-0.521333403907,0.164040754884,2.10303833433,-2.31590677073
4.54025604857,2.88065584369,0.753901300131,-1.82255756729
5.48184550105,6.01727093251,3.22476426593,1.79079163615
0.583434953536,0.0838860213189,3.73562723174,1.13414083959
-7.99497559398,-4.03949888987,1.72649019754,-3.22250995697
-0.143386141506,-0.452883801059,-0.542646836657,-5.99916075352
-1.38179668903,-2.11626871225,-1.17178387085,-7.86581155008
-0.990207236544,-3.01965362344,-0.520920905052,-6.77246234664
-1.07861778406,-6.36303853463,-2.41005793925,-0.739113143196
2.07297166842,-1.18642344581,-2.49919497344,1.57423606025
2.3845611209,-0.279808357009,-3.03833200764,0.637585263688
13.0961505734,5.27680673181,-2.84746904184,5.52093446713
0.337740025861,1.31342182063,-1.50660607604,1.63428367058
0.249329478342,-1.06996309057,0.674256889766,-1.08236712598
0.110918930826,-7.54334800175,-0.864880144431,0.840982077458
8.3225083833,-5.62673291295,-1.18401717863,1.0143312809
2.17409783578,1.82988217587,-1.23315421282,1.31768048434
2.60568728827,6.84649726468,-1.19229124702,4.06102968779
4.77727674075,-2.19688764651,-1.06142828122,1.69437889123
-4.21113380677,-3.4102725577,0.739434684585,0.747728094673
0.580455645708,1.85634253111,1.07029765039,6.28107729811
2.95204509819,-2.02704238008,-0.858839383809,-0.0255734984439
1.70363455067,1.76957270873,-0.677976418006,-1.102224295
-0.334775996846,-10.8538122025,-4.3771134522,-4.81887509156
7.10681345563,-14.2171971136,-5.2062504864,-7.27552588812
7.89840290811,-3.43058202483,-3.3753875206,1.51782331533
4.56999236059,1.94603306398,-0.314524554793,3.01117251877
3.52158181308,4.19264815279,0.0563384110101,5.06452172221
2.89317126555,-6.9207367584,-1.20279862319,0.237870925654
3.36476071804,-9.03412166959,-0.931935657385,-3.1487798709
0.466350170522,0.54249341922,-0.251072691581,-1.25543066746
6.527939623,-1.93089149197,-2.87020972578,-0.542081464018
1.06952907548,0.72572359685,-0.679346759976,0.281267739425
-1.71888147204,-5.45766131434,-3.18848379417,-4.75538305713
-6.11729201955,-13.9410462255,-1.69762082837,-4.98203385369
-1.91570256708,-6.24443113672,-1.92675786257,-3.59868465025
-6.2741131146,-3.81781604791,-2.19589489676,-4.40533544681
-8.66252366211,0.978799040902,-0.03503193096,-1.04198624336
-9.00093420964,-5.15458587029,-0.194168965158,-3.14863703992
-9.75934475715,-5.11797078147,-0.193305999353,-7.28528783648
-9.23775530467,5.88864430734,1.60755696645,-0.541938633036
-4.92616585219,8.65525939615,1.98841993225,3.54141057041
1.49542360029,3.23187448495,-0.750717101946,1.93475977385
-5.90298694723,1.16848957377,0.770145863858,5.49810897729
4.69860250525,11.4151046626,3.62100882966,11.6214581807
4.07019195773,15.4917197514,4.58187179546,14.2548073842
9.10178141022,10.1683348402,1.65273476127,13.2481565876
13.1733708627,12.564949929,2.74359772707,11.6515057911
5.08496031517,13.6315650178,4.76446069287,10.9748549945
7.38654976766,-10.2318198934,-0.804676341324,-0.0717958020523
4.92813922014,-5.05520480455,0.0461866244787,-1.70844659861
-1.01027132737,2.24141028427,0.937049590282,-0.685097395168
-8.2786818749,2.78802537307,1.39791255609,-1.18174819173
-0.627092422415,5.59464046189,3.96877552189,0.821601011718
2.28449703006,-2.2987444493,2.25963848769,-2.08504978484
0.516086482545,4.07787063951,1.97050145349,3.1882994186
2.77052688955,14.0452507268,-6.80837936047,12.3126925872
3.51726194838,17.4747325066,-4.33239110282,15.7917495937
-6.50600299279,3.22421428654,-7.77640284518,6.94080660021
-2.54926793397,-6.11630393356,-10.3404145875,0.659863606712
-4.84253287515,-0.126822153667,-7.37442632989,2.37892061321
-7.01579781632,4.80265962622,-6.43843807224,4.87797761971
-0.319062757495,0.172141406118,-13.4724498146,-1.83296537379
-2.45232769867,1.59162318601,-6.99646155695,2.14609163271
3.82440736016,-1.0488950341,-2.77047329931,3.33514863921
3.73114241899,6.2905867458,-2.79448504166,2.19420564572
-0.372122522189,6.0700685257,-2.87849678401,-0.116737347784
1.99461253664,12.6495503056,-1.58250852637,3.26231965872
2.18134759547,0.519032085482,-5.25652026873,9.56137666522
6.41808265429,3.86851386537,0.30946798892,15.7504336717
4.13481771311,14.9679956453,2.97545624657,13.4294906782
13.7915527719,16.4674774252,-3.08855549579,14.3385476847
6.46828783076,6.21695920506,-1.77256723815,9.41760469122
12.8750228896,7.49644098495,0.7134210195,4.85666169772
16.5617579484,3.96592276484,-0.360590722854,8.18571870422
10.8084930073,-0.724595455264,-4.47460246521,2.95477571072
6.88522806607,8.11488632463,-2.86861420756,3.49383271722
9.8019631249,4.15436810453,-4.70262594992,6.30288972372
7.53869818373,-3.41615011558,-6.77663769227,1.79194673022
4.04543324256,-0.45666833569,-4.23064943463,1.23100373672
2.01216830137,-5.0371865558,-3.44466117698,1.81006074322
2.9189033602,-7.3577047759,-3.46867291934,6.16911774973
0.0456384190256,0.451777003989,-1.81268466169,1.40817475623
2.74237347786,-7.23874121611,-1.39669640405,-5.84276823727
-8.04089146332,-10.0492594362,1.5992918536,-7.54371123077
-7.04415640449,0.890222343674,4.35528011124,-0.764654224271
-0.117421345662,1.46970412356,1.09126836889,2.49440278223
-9.00068628684,2.90918590346,2.76725662653,0.633459788729
-5.11395122801,-1.31133231665,4.79324488418,0.0725167952296
-4.31721616919,1.43814946325,7.67923314182,4.32157380173
-2.63048111036,-3.69236875686,6.38522139947,1.44063080823
3.62625394846,-2.50288697697,4.44120965711,-2.86031218527
-0.78701099271,7.28659480293,7.22719791476,5.43874482123
-1.98027593389,2.51607658282,4.8831861724,1.13780182773
-4.51354087506,-10.5844416373,1.32917443005,-6.28314116577
-10.0568058162,-8.67495985739,0.745162687694,-6.41408415927
2.6299292426,0.314521922504,-0.188849054661,-6.52502715277
-8.17333569858,1.5940037024,2.46713920298,-8.65597014626
-5.52660063975,-19.5465145177,0.77312746063,-17.9969131398
-9.61986558093,-16.1870327378,3.04911571828,-17.6478561333
-3.57313052211,-13.8375509579,4.49510397592,-12.2087991268
-0.116395463279,-9.78806917802,3.72109223357,-13.9797421203
-2.37966040445,-6.15858739813,4.38708049121,-11.3706851138
-2.10292534562,-13.5991056182,3.94306874886,-12.6616281073
-12.1861902868,-11.3996238383,5.5490570065,-8.95257110076
1.31054477203,-7.82014205845,2.79504526415,-7.70351409426
-2.43272016914,-7.93066027856,1.46103352179,-8.87445708776
-13.6659851103,2.39882150134,4.91702177944,-1.51540008126
-5.70925005149,-4.43169671877,5.95301003708,-3.64634307476
-9.29251499267,-6.75221493888,7.24899829473,-5.76728606826
-5.36577993385,2.01726684102,7.73498655237,1.92177093824
-5.48904487502,3.42674862091,3.64097481002,-0.0491720552563
3.13769018381,0.906230400804,6.63696306766,-3.16011504875
4.59442524263,-9.8642878193,4.45295132531,-9.17105804226
-10.4688396985,-8.0048060394,2.96893958295,-9.15200103576
-7.24210463971,-7.32532425952,2.3249278406,-7.94294402926
0.444630419115,-2.40584247962,3.33091609824,-4.17388702275
-0.098634522059,4.46363930027,4.89690435589,-0.684830016253
-1.96189946323,1.71312108016,4.87289261353,-1.64577300975
-1.61516440441,-2.61739713994,4.46888087118,-2.96671600325
-5.77842934558,0.142084639956,5.51486912882,-4.66765899675
-5.45169428676,7.56156641985,6.14085738647,-2.40860199025
-8.69495922793,-6.17895180026,3.30684564411,-10.0795449838
-1.8882241691,-8.24947002037,3.10283390176,-8.90048797725
-5.22148911028,-4.95998824047,4.2688221594,-10.2614309707
-5.25475405145,-6.36050646057,1.85481041705,-12.9223739642
-8.67801899262,-2.13102468068,0.980798674695,-10.1033169577
-2.18128393379,-4.41154290079,1.80678693234,-7.65425995125
-1.74454887498,4.4679388791,4.33277518999,-7.76520294475
-3.06781381615,-7.892579341,2.82876344763,-12.5461459382
-1.85107875733,-8.41309756111,1.57475170528,-9.44708893174
-2.5743436985,-5.68361578121,0.19073996292,-7.31803192525
-3.42760863967,0.0658659986802,-1.50327177943,-1.24897491874
1.07912641916,-9.43465222143,-2.77728352179,-5.93991791224
-4.47413852202,-15.1051704415,-1.51129526414,-7.08086090574
-2.75740346319,-8.35568866164,-2.2653070065,-0.351803899242
3.46933159564,1.42379311825,-1.41931874885,2.10725310726
10.8560666545,5.31327489815,2.11666950879,3.64631011376
6.47280171328,5.34275667804,2.22265776644,5.72536712026
5.45953677211,-2.80776154206,0.638646024081,2.07442412676
2.02627183094,0.61172023783,1.03463428173,3.10348113326
15.3030068898,6.68120201772,0.230622539371,5.56253813976
6.59974194859,7.75068379761,1.19661079702,4.48159514626
6.79647700742,2.95016557751,1.68259905466,4.91065215276
8.55321206624,7.8696473574,3.87858731231,7.69970915926
3.35994712507,5.6691291373,2.39457556995,4.76876616576
7.2366821839,13.0486109172,3.2505638276,8.23782317227
10.9834172427,12.1580926971,0.696552085243,7.51688017877
4.01015230154,0.877574476974,0.562540342888,1.77593718527
3.72688736037,-0.862943743123,-0.401471399467,-0.535005808235
6.4036224192,3.52653803677,0.224516858178,3.04405119827
7.03035747802,11.1760198167,0.940505115825,3.95310820477
3.21709253685,1.04550159655,-1.67350662653,-2.76783478873
8.62382759568,-2.92501662356,-0.447518368886,-0.228777782231
-0.0594373454951,-0.795534843659,-0.491530111241,2.61027922427
5.89729771333,4.15394693624,-2.0555418536,5.42933623077
12.5340327722,13.2334287161,-1.20955359595,10.2483932373
4.56076783098,15.892910496,-0.603565338306,13.5774502438
3.1975028898,4.23239227592,-1.53757708066,5.70650725027
2.43423794863,-3.42812594419,-2.26158882302,-0.394435743228
-9.97902699254,7.0813558357,0.38439943463,5.59462126327
-4.98229193372,3.6408376156,0.110387692275,2.80367826977
2.98444312511,5.30031939549,-0.62362405008,4.07273527627
2.82117818393,-4.24019882461,-1.78763579243,0.381792282775
-4.07208675724,0.059282955277,0.95835246521,4.43084928928
-5.88535169841,2.69876473517,0.334340722855,3.93990629578
3.76138336042,9.16824651506,0.1103289805,5.31896330228
-5.61188158076,1.12772829496,-2.01368276185,0.488020308776
-6.82514652194,-7.16278992515,-3.13769450421,-0.602922684722
-3.74841146311,-4.90330814525,-2.08170624656,2.11613432178
11.3583235957,0.716173634639,-3.35571798892,3.32519132828
2.71505865454,2.81565541453,-3.59972973127,2.51424833478
0.321793713367,2.82513719443,-3.20374147363,1.71330534128
-7.9814712278,-5.33538102567,-5.48775321598,-3.51763765222
-14.464736169,-14.6258992458,-7.23176495834,-8.52858064572
-6.18800111015,-6.28641746589,-6.64577670069,-5.24952363922
-8.00126605132,2.43306431401,-5.21978844305,1.90953336728
-4.7845309925,6.8525460939,-1.6638001854,4.04859037378
-3.00779593368,-1.34797212621,-3.22781192776,4.29764738028
-0.621060874852,-4.44849034632,-4.43182367011,2.81670438678
7.50567418397,-0.159008566421,-3.07583541247,3.64576139329
8.6124092428,4.57047321347,-4.14984715482,5.89481839979
2.25914430163,4.69995499337,-4.23385889718,5.27387540629
0.955879360459,7.43943677326,-3.51787063953,5.80293241279
-10.4590598291,-10.7963247863,-2.77247863248,-7.22529914529
-5.21759658118,0.819104273527,0.342427350424,-2.15075213675
-7.09613333333,-3.93546666665,-3.51266666667,-1.2762051282
0.995329914535,-1.71003760683,-2.35776068376,-3.19165811965
2.0867931624,0.915391453003,-0.292854700856,-1.51711111111
-0.281743589738,-9.37917948716,-0.947948717949,-5.80256410256
3.43971965813,-5.82375042734,-1.83304273504,-1.21801709401
15.041182906,4.43167863249,-1.39813675214,8.01652991453
11.9926461539,3.29710769232,-0.0232307692313,5.33107692308
5.66410940171,10.3725367521,1.70167521368,7.34562393163
-4.06442735043,3.89796581197,2.00658119658,3.15017094017
2.52703589744,8.3533948718,3.13148717949,6.72471794872
7.9584991453,5.41882393163,1.26639316239,3.94926495727
-3.92003760684,8.73425299146,4.9012991453,3.01381196581
-0.618574358967,2.23968205128,5.35620512821,-0.44164102564
-2.42711111111,-2.67488888888,3.92111111111,-3.30709401709
-3.19564786325,3.37054017094,2.00601709402,1.45745299146
-4.91418461538,1.63596923077,0.410923076925,-0.977999999999
-5.92272136752,0.731398290598,-0.47417094017,-1.95345299145
-5.01125811966,-1.13317264958,0.870735042738,-1.9589059829
-7.1597948718,-10.4177435897,-1.57435897436,-7.13435897436
2.00166837607,3.37768547008,0.960547008552,2.57018803419
3.71313162392,3.85311452991,-0.924547008544,2.56473504274
8.34459487179,-0.741456410266,-3.81964102564,-0.47071794872
-0.963941880342,-6.18602735044,-4.12473504273,-1.78617094017
-2.51247863248,-8.6505982906,-2.81982905982,-3.71162393163
