1.76914244187,-17.4338662791,-3.30710755814,-11.3236882267
2.45718867311,-9.54293063884,-2.50984872848,-6.52269510507
-2.12476509566,-9.41199499861,-1.78258989883,-7.18170198339
-1.30671886443,-7.5110593584,0.284668930827,-7.2907088617
1.1513273668,-12.5001237182,-4.55807223952,-10.21971574
-0.0106264019742,-14.799188078,-3.71081340986,-13.3787226183
6.77741982926,-11.6082524377,0.496445419794,-10.2077294967
4.29546606048,-10.7173167975,-1.32629575055,-10.616736375
17.9735122917,-8.32638115729,0.100963079106,-6.8457432533
15.0415585229,-5.24544551707,1.08822190876,0.325249868381
-9.48039524582,-4.46450987685,-2.60451926158,-8.28375700994
-18.9123490146,-4.03357423662,-5.07726043193,-9.98276388826
-5.35430278336,2.5273614036,1.12999839773,-2.67177076658
-9.30625655213,3.46829704382,3.91725722739,-2.93077764489
-7.2082103209,5.85923268404,3.47451605704,-1.00978452321
0.359835910331,3.53016832426,-0.238225113303,-0.788791401532
-1.81211785844,2.39110396448,-1.04096628365,-1.66779827985
-5.63407162721,0.242039604705,-1.22370745399,-2.96680515817
-0.17602539598,4.47297524493,1.02355137566,0.944187963512
1.27202083525,8.44391088515,1.21081020532,3.13518108519
-2.75993293352,9.04484652537,3.70806903497,5.96617420687
-5.84188670229,9.67578216559,2.86532786463,6.94716732856
-3.07384047106,11.2367178058,2.79258669429,5.62816045024
-8.61579423983,5.91765344603,4.02984552394,0.119153571917
-9.2977480086,9.14858908625,3.8171043536,2.5301466936
-5.87970177736,8.38952472648,3.76436318325,5.07113981528
-5.90165554614,6.7104603667,3.75162201291,1.00213293696
-5.34360931491,1.26139600692,1.21888084257,-0.226873941358
-5.32556308368,3.78233164714,2.92613967222,-0.345880819677
-5.21751685245,2.37326728736,1.57339850188,-0.0848876979962
-3.75947062121,0.454202927584,0.900657331534,-0.263894576316
-0.141424389985,0.0251385678021,-0.592083838811,0.847098545366
-5.35337815875,-0.933925791975,0.315174990845,0.378091667048
-4.66533192752,0.287009848249,1.8024338205,-0.360915211271
-5.60728569629,1.17794548847,-1.36030734984,-0.169922089592
-5.31923946507,5.91888112869,-0.743048520188,2.04107103209
-2.50119323383,3.25981676891,4.65421030947,0.612064153771
-3.2931470026,5.27075240913,3.55146913912,2.75305727545
3.39489922863,6.18168804936,2.26872796878,5.29405039713
-1.34705454014,4.73262368958,0.785986798436,5.04504351881
1.46099169109,2.4935593298,1.19324562809,3.0560366405
1.83903792232,-0.525505029982,0.830504457747,3.67702976218
0.767084153547,-0.97456938976,-0.342236712598,1.56802288386
2.08513038478,5.01636625046,1.61502211706,6.61901600554
13.683176616,2.46730189068,3.39228094671,8.52000912722
3.19122284724,0.358237530905,0.629539776371,6.1910022489
-2.66073092153,1.74917317112,-1.37320139397,1.47199537058
-6.1726846903,2.30010881135,0.00405743568172,2.85298849226
-4.77463845907,2.03104445157,-1.47868373466,-1.22601838605
-2.15659222784,-2.30801990821,-3.64142490501,-4.57502526437
-0.818545996612,-0.517084267991,-3.73416607535,-0.984032142693
-1.38049976538,3.84385137223,0.633092754305,5.20696097899
-0.262453534149,-0.135212987545,-0.0896484160394,2.26795410067
7.28559269708,0.465722652672,-1.46238958638,2.33894722235
-2.61636107169,0.836658292897,-1.38513075673,-0.26005965597
0.241685159541,-1.50240606688,-0.257871927072,1.86093346571
-4.08026860922,-2.38147042666,0.049386902584,1.36192658739
0.547777622003,-3.23053478644,1.06664573224,2.18291970907
-3.07417614677,-6.33959914622,-0.286095438105,0.553912830756
-1.91612991553,-4.258663506,-2.23883660845,0.744905952437
0.291916315691,-6.87772786578,-0.961577778793,-1.46410092588
-1.72003745308,-10.5267922256,-2.64431894914,-3.4831078042
9.16800877815,-7.79585658534,-4.48706011948,0.937885317479
4.37605500939,-6.12492094511,-2.99980128983,3.25887843916
-1.36589875938,-3.68398530489,-0.73254246017,1.32987156084
2.45214747184,-4.13304966467,0.244716369486,0.570864682522
2.85019370308,-4.65211402445,-1.10802480086,-0.418142195796
-0.171760065696,-1.01117838423,-1.8607659712,0.362850925885
3.33628616554,2.339757256,-2.02350714155,3.75384404757
21.7043323968,0.910692896214,-2.65624831189,8.15483716925
9.81237862799,2.49162853644,-5.54898948224,9.93583029093
-1.49957514077,3.30256417666,-1.05173065258,5.79682341261
11.0384710905,7.32349981688,0.255528177076,7.26781653429
9.42651732169,2.6044354571,-2.02721299327,3.50880965597
-2.10543644708,6.60537109732,-3.17995416361,5.96980277765
7.97260978415,6.73630673754,-4.73269533396,8.45079589933
10.2906560154,0.877242377763,-1.7454365043,4.51178902101
4.76870224661,4.13817801799,-1.26817767464,3.85278214269
8.00674847784,2.63911365821,-1.25091884499,4.38377526438
9.63479470907,5.84004929843,-1.49366001533,5.90476838606
10.9728409403,0.470984938653,0.983598814323,1.51576150774
10.3708871715,-3.68807942113,-2.93914235602,1.00675462942
10.5489334028,2.50285621909,-1.70188352637,6.3877477511
0.036979633991,6.29379185932,-0.0146246967106,3.67874087278
10.5350258652,9.78472749954,0.472634132946,5.92973399446
9.98307209645,9.42566313976,0.189892962601,6.57072711614
1.12111832768,3.11659877998,-2.01284820774,5.52172023783
3.10916455891,1.9075344202,1.91441062191,5.49271335951
12.2072107901,3.36847006042,3.24166945157,1.78370648119
-0.58474297863,1.43940570064,0.798928281224,-0.615300397132
0.863303252605,6.78034134087,3.37618711088,3.89569272455
2.05134948383,4.34127698109,1.13344594054,7.71668584623
8.36939571506,3.27221262131,2.76070477019,8.02767896791
3.80744194629,5.72314826153,3.12796359985,3.72867208959
5.21548817752,9.21408390175,2.5552224295,5.08966521127
3.71353440875,6.48501954197,3.95248125916,4.91065833295
11.22158064,5.16595518219,5.16974008882,7.25165145464
8.73962687122,2.45689082241,2.45699891847,6.73264457632
3.93767310245,-0.382173537368,-1.44574225187,0.603637697997
-1.21428066632,-3.71123789714,-2.96848342222,-5.72536918032
-6.53623443509,-1.04030225692,-0.721224592562,-4.63437605864
5.44181179614,0.0106333832991,3.42603423709,0.43661706304
-10.2901419726,0.171569023521,2.18329306675,-0.482389815277
-6.4320957414,-3.51749533626,0.540551896405,-2.4313966936
-0.954049510172,-3.38655969603,-2.31218927394,-5.12040357192
0.783996721057,-0.325624055815,-2.72493044428,-0.809410450234
7.60204295229,-2.60468841559,-2.86767161463,-1.76841732855
3.51008918352,-3.72375277538,-4.66041278497,-2.95742420687
9.15813541475,-3.23281713515,-1.90315395532,-1.37643108519
-0.18381835402,-6.72188149493,-2.71589512566,-3.01543796351
-9.79577212279,-8.40094585471,-1.458636296,-5.85444484183
-6.82772589156,-3.69001021449,0.298622533652,-5.18345172015
-7.31967966033,-4.73907457427,0.405881363307,-3.94245859847
-7.5016334291,-4.09813893404,-2.22685980704,-4.50146547679
-17.9635871979,-6.34720329383,-3.63960097738,-9.9604723551
2.03445903336,-7.4262676536,-3.00234214773,-8.05947923342
-12.7174947354,-3.51533201338,1.76491668193,-4.82848611174
-5.09944850418,-0.434396373159,5.06217551159,-3.73749299006
0.748597727052,-1.73346073294,3.48943434124,-5.03649986838
-9.24335604172,1.26747490728,3.9766931709,-5.2855067467
-5.46530981049,-4.2415894525,2.31395200055,-6.83451362502
-6.24726357925,-1.18065381228,0.311210830209,-5.18352050334
-9.73921734803,-3.83971817205,-0.0615303401346,-8.27252738166
-9.70117111679,-3.29878253183,-0.114271510479,-7.09153425997
-8.49312488556,-2.02784689161,-0.837012680823,-5.88054113829
-3.95507865434,-4.66691125139,2.03024614883,-9.88954801661
-5.25703242311,-0.695975611168,1.90750497849,-5.19855489493
-7.93898619188,-0.175039970945,1.25476380814,-1.91756177325
13.6808502907,2.39212936047,-2.99553415698,5.7391678779
20.7557606208,6.96778480362,-2.36929912104,11.2555675471
1.04067095085,6.03344024676,-2.69306408511,8.5519672164
15.5155812809,7.2290956899,-2.40682904917,8.88836688564
10.100491611,3.70475113304,-5.44059401323,6.04476655489
-2.32459805895,0.310406576184,-3.0543589773,-0.0588337758691
11.1703122711,-2.36393798067,-1.58812394136,-3.92243410662
7.98522260119,-3.86828253753,-3.29188890542,-2.93603443738
-8.97986706874,-6.03262709439,-3.81565386948,-6.15963476813
5.00504326132,5.33302834875,-1.00941883355,1.81676490111
-0.160046408608,-1.4113162081,-6.87318379761,-4.55683542964
4.55486392146,1.83433923504,-3.70694876168,-2.3904357604
2.93977425152,4.96999467818,-1.72071372574,1.88596390885
5.99468458159,-3.46434987868,-1.5044786898,-4.8476364219
8.06959491166,-2.65869443554,-1.86824365387,-3.24123675266
-1.16549475827,-2.98303899239,-2.84200861793,-5.00483708341
-3.1405844282,-2.63738354925,-4.83577358199,-9.27843741417
-5.48567409814,-2.45172810611,-1.80953854606,-6.33203774492
-2.85076376807,-0.116072662971,-0.403303510119,-4.76563807568
-9.945853438,-3.96041721983,-0.437068474183,-10.7592384064
-2.46094310793,-2.85476177668,-2.23083343825,-13.3928387372
-12.0960327779,-10.5591063335,-5.12459840231,-18.8464390679
-17.0611224478,-11.8034508904,-6.51836336637,-18.0700393987
3.73378788227,-10.6677954473,-4.53212833043,-19.5636397294
6.01869821233,-3.31214000412,2.4741067055,-13.0372400602
-14.4463914576,4.14351543903,3.43034174144,-4.01084039096
-5.21148112753,3.89917088217,2.23657677737,-6.94444072171
-8.30657079746,-3.06517367469,0.262811813312,-11.8180410525
-10.6116604674,-2.38951823155,-0.0609531507525,-12.6216413832
3.55324986268,-3.2238627884,-3.17471811482,-11.525241714
-13.3018398073,-2.92820734526,-4.23848307888,-12.7388420447
-9.88692947719,-0.462551902121,0.0477519570577,-5.94244237548
-4.30201914712,1.78310354102,-0.336013007006,-2.41604270624
2.69289118295,0.778758984165,0.660222028931,-0.689643036992
-15.872198487,-1.77558557269,1.23645706487,-4.31324336775
-0.827288156921,3.89006987045,1.9426921008,4.2931563015
-7.54237782685,-0.824274686409,-1.04107286326,-1.54044402926
2.56253250321,0.591380756734,1.07516217268,1.82595563999
-3.19255716672,1.76703619988,2.81139720861,2.90235530924
-4.55764683665,2.06269164302,1.75763224455,2.96875497848
-4.14273650658,1.93834708616,-1.51613271951,4.35515464773
-7.04782617651,3.9740025293,-1.78989768358,6.58155431697
4.70708415355,1.09965797245,1.07633735236,1.68795398622
-7.23800551638,1.84531341559,-0.577427611703,6.71435365546
-9.56309518631,-3.07903114127,-0.501192575766,4.93075332471
-4.31818485625,-4.12337569813,-1.11495753983,5.21715299396
-5.10327452618,0.37227974501,1.32127749611,5.2635526632
6.09163580389,1.43793518815,3.56751253204,5.81995233245
19.856546134,-0.0164093687054,4.32374756798,4.60635200169
-16.138543536,0.799246074439,2.65998260392,4.27275167094
-9.9936332059,1.99490151758,3.29621763985,2.97915134018
-9.90872287584,-2.26944303928,0.382452675791,-2.63444899057
-11.8338125458,-3.13378759613,2.58868771173,-0.448049321325
4.34109778429,-7.36813215299,1.08492274766,-0.851649652079
-4.51399188564,-7.94247670985,-0.738842216399,-0.355249982835
-6.95908155557,-2.70682126671,4.95739281954,3.79114968641
-3.4541712255,-3.66116582357,6.47362785547,-1.12245064434
12.5007391046,1.62448961958,7.75986289141,5.5139490249
-6.07435056537,4.70014506272,7.86609792735,7.41034869415
-12.0894402353,0.205800505861,6.98233296328,5.15674836339
0.915470094769,0.981455949001,4.75856799922,6.33314803264
7.55038042484,0.447111392143,1.44480303516,9.28954770188
4.9952907549,-2.91723316471,-1.39896192891,3.98594737113
1.55020108497,2.18842227843,4.44727310703,8.12234704038
2.03511141504,-0.86592227843,5.08350814297,6.19874670962
9.54002174511,-4.23026683529,3.4497431789,4.67514637887
-1.46506792483,3.99538860785,3.97597821484,8.18154604811
7.15984240524,4.141044051,2.92221325078,11.6279457174
5.41475273531,4.05669949414,5.41844828671,13.1943453866
14.0196630654,0.292354937283,5.80468332265,5.57074505585
11.4645733954,4.94801038042,6.11091835859,8.9671447251
-2.64051627448,3.97366582357,4.40715339452,8.60354439434
-1.28560594442,8.78932126671,5.62338843046,11.9999440636
6.97930438565,2.37497670985,7.2996234664,7.72634373283
-1.22578528428,9.54063215299,9.14585850233,10.0127434021
5.46912504578,6.55628759613,5.62209353827,9.66914307133
0.554035375852,1.15194303928,3.42832857421,4.08554274057
-3.86105429408,5.53759848242,5.32456361014,3.59194240982
0.163856035986,6.19325392556,3.10079864608,6.51834207906
-4.58123363395,-1.4410906313,-3.88296631798,-0.945258251693
9.31367669612,-2.99543518816,-4.62673128205,-1.88885858245
1.21858702619,4.52022025499,0.29950375389,9.0875410868
5.44349735626,7.25587569813,-1.15426121017,14.463940756
3.77840768632,0.49153114127,-0.378026174236,7.34034042529
1.43331801639,-0.232813415587,0.00820886170004,4.94674009454
3.36822834646,0.952842027556,0.114443897637,1.19313976378
0.823138676526,3.8884974707,-1.92932106643,1.13953943303
2.17804900659,-0.365847086163,-1.80308603049,4.31593910227
5.05295933666,5.04980835698,1.81314900545,9.30233877152
2.65786966673,2.50546380013,1.93938404138,6.11873844076
0.752779996797,3.39111924326,2.60561907732,3.28513811001
12.2376903269,2.63677468641,1.34185411326,1.87153777925
3.83260065693,2.26243012955,2.87808914919,4.0579374485
-1.582489013,5.19808557269,3.56432418513,5.04433711774
0.532421317068,2.83374101584,2.41055922107,6.07073678699
3.14733164713,-3.43060354102,-0.793205742996,4.57713645624
-3.6077580228,4.52505190212,-1.71697070706,6.07353612548
5.88715230727,1.59070734526,-1.97073567112,5.68993579473
9.73206263734,1.8863627884,1.17549936481,5.08633546397
9.96697296741,2.16201823155,2.02173440075,7.96273513322
9.16188329747,-1.76232632531,2.54796943669,1.09913480246
6.15679362754,-0.306670882168,-0.125795527377,-1.37446552829
7.16170395761,-1.48101543903,-1.55956049144,1.05193414095
3.82661428767,-2.09535999588,-2.2333254555,0.0283338102017
-2.74847538226,-1.01970455274,0.972909580433,-1.85526652055
5.96643494781,-0.404049109602,-0.24085538363,2.15113314869
0.821345277876,-3.31839366646,-3.64462034769,0.157532817937
-0.213744392055,-6.33273822332,-2.78838531176,-5.76606751282
-3.12883406199,-7.57708278018,-3.26215027582,-5.98966784357
-3.48392373192,-4.80142733703,-5.07591523988,-5.03326817433
6.99098659815,-6.35577189389,-1.72968020395,-6.03686850508
6.22589692822,-2.57011645075,-1.72344516801,-4.14046883583
0.970807258283,-4.99446100761,-1.12721013207,-6.19406916659
-2.20428241165,-6.43880556446,-2.99097509614,-9.61766949734
17.0506279184,-2.65315012132,-1.9847400602,-2.0912698281
12.6455382485,-6.26749467818,-2.93850502426,-3.16487015885
-9.50955142145,-1.70183923504,-5.56226998833,-7.58847048961
-13.1546410914,3.5338162081,-5.11603495239,-2.92207082036
-14.6597307613,4.83947165125,0.0802000835465,-1.84567115111
-8.09482043124,1.65512709439,-2.47356488052,-6.87927148187
-4.89991010118,-0.0192174624681,-3.91732984458,-6.90287181262
-6.33499977111,0.976437980673,-5.02109480864,-9.47647214338
-2.85008944104,-0.607906576184,-5.69485977271,-8.13007247413
-12.085179111,-0.592251133043,-1.56862473677,-12.2236728049
-13.7002687809,-8.4365956899,-3.47238970083,-19.3772731356
-5.63535845084,-4.56094024676,-4.3961546649,-17.6608734664
2.73955187923,0.634715196386,-4.78991962896,-9.70447379715
-6.6955377907,5.25037063953,-2.16368459302,-6.9980741279
-9.81904201679,-4.19289075629,0.695260504198,-1.68752941177
1.99362719635,-1.45583498853,0.202713521768,-2.18848128343
-3.38370359051,-4.44877922077,-1.95983346066,-5.00943315509
-3.88103437737,-0.771723453003,-2.18238044309,-1.06038502674
3.97163483577,-6.00466768524,-2.26492742552,-5.5613368984
-2.67569595109,0.71238808252,1.91252559205,-0.782288770059
1.44697326205,3.53944385028,4.51997860962,6.42675935828
-4.19035752481,-0.873500381957,-0.432568372808,-0.884192513373
-0.0876883116725,2.6135553858,-0.0851153552358,-1.92514438503
-0.0150190985332,1.24061115357,1.16233766233,-0.836096256689
-1.79234988539,-2.79233307867,-0.390209320095,-1.66704812835
3.61031932774,-3.19527731091,-1.11275630252,-2.548
-1.25701145912,-0.838221543152,-3.50530328495,-0.178951871661
-0.864342245979,0.0988342246092,0.262149732617,-1.12990374332
5.49832696716,4.28588999237,2.93960275019,2.86914438502
3.6509961803,1.96294576013,-1.70294423224,1.53819251337
11.4036653934,-0.509998472109,-1.55549121467,2.44724064171
5.82633460658,-1.11294270435,2.4419618029,0.256288770051
0.0690038197208,5.60411306342,1.04941482047,6.03533689839
4.21167303286,4.52116883118,0.436867838042,5.58438502673
7.844342246,5.27822459894,1.03432085561,8.81343315508
1.12701145914,8.6452803667,3.21177387318,8.85248128342
-2.90031932772,16.3223361345,4.72922689075,8.35152941176
0.462349885416,12.7193919022,3.71667990832,10.2905775401
-11.3349809014,-4.69355233002,-1.9458670741,-2.16037433155
-2.4223116883,-5.70649656226,-5.91841405653,-3.76132620321
6.51035752484,-7.88944079449,-6.23096103896,-4.66227807487
0.0330267379759,-8.16238502674,-4.56350802139,-7.39322994653
1.23569595111,-1.57532925897,0.743944996178,-1.14418181818
1.59836516425,-2.27827349121,1.70139801375,-3.56513368984
-3.12896562261,-4.80121772345,-0.411148968679,-4.6860855615
-4.22629640947,-5.17416195569,-0.173695951108,-7.05703743316
-5.38362719633,-0.527106187925,0.243757066462,-3.08798930481
-3.13095798319,-0.540050420164,3.43121008403,1.51105882353
