0.733452034892,10.1121584302,9.97995276163,4.43757994185
-2.57358805621,6.01281833685,10.8359488303,0.76117735419
-1.01062814731,6.90347824346,10.7719448991,0.404774766521
-3.57766823841,3.43413815007,10.0579409678,1.49837217885
-7.37470832951,-1.84520194332,6.50393703648,-1.97803040881
-6.19174842061,-4.82454203671,4.6299331052,-5.77443299648
-7.21878851171,-1.4738821301,5.23592917391,-1.51083558415
-3.62582860281,-0.60322222349,5.19192524263,1.92276182819
-1.47286869391,0.977437683123,4.80792131134,4.91635924052
-2.18990878501,1.48809758973,5.08391738006,4.72995665285
-1.38694887611,-2.18124250366,4.25991344877,3.56355406518
-4.08398896721,-3.59058259705,2.69590951749,-0.532848522482
0.138970941687,-1.10992269043,1.8419055862,-4.52925111015
-1.26806914941,8.45073721618,7.36790165491,2.12434630218
-7.97510924051,12.5813971228,9.18389772363,7.95794371452
-5.40214933161,-0.407942970603,1.08989379234,-0.638458873149
-3.09918942272,-9.32728306399,-2.77411013894,-6.53486146082
-1.03622951381,-11.6366231574,-2.05811407023,-6.76126404848
0.366730395082,-14.5659632508,-5.94211800151,-11.1076666362
-0.660309696017,-15.4153033442,-4.5061219328,-13.5740692238
-2.53734978712,-13.4346434376,-2.38012586408,-11.4504718115
-7.11438987822,-13.2139835309,-2.69412979537,-10.8768743992
-8.57142996932,-11.2533236243,-1.86813372666,-10.2032769868
-4.47847006042,-10.4926637177,-3.43213765794,-12.2696795745
-3.86551015152,-9.78200381111,-2.66614158922,-9.90608216215
-3.67255024262,-6.6513439045,-1.84014552051,-4.45248474982
-0.0895903337223,-4.62068399789,-0.924149451796,-2.08888733749
-1.20663042482,-1.88002409128,-0.408153383081,-3.07528992515
-1.07367051593,0.530635815332,-0.692157314368,0.408307487178
-2.01071060702,1.15129572194,-0.536161245653,3.02190489951
2.50224930188,0.881955628553,0.24983482306,2.23550231185
4.18520921078,2.44261553516,1.88583089178,1.91909972418
-1.24183088033,7.62327544177,5.91182696049,5.17269713651
-0.998870971423,9.05393534838,6.5378230292,5.97629454884
3.94408893747,7.37459525499,5.01381909792,7.10989196118
2.37704884637,4.0652551616,4.70981516664,3.01348937351
0.97000875527,1.26591506821,4.52581123535,1.64708678584
4.32296866417,3.87657497482,4.10180730407,4.46068419818
1.35592857307,1.02723488144,3.18780337278,0.854281610507
3.65888848197,-4.33210521196,0.893799441494,-2.54212097716
4.50184839087,-5.66144530534,-1.90020448979,-1.62852356482
3.23480829977,-4.63078539873,-2.43420842108,1.15507384751
4.30776820867,-3.61012549212,-2.49821235236,1.68867125984
0.0607281175689,-5.53946558551,-1.85221628365,0.412268672175
0.403688026465,-12.3288056789,-4.79622021493,-6.90413391549
-3.24335206463,-11.8281457723,-6.11022414622,-6.88053650316
-6.80039215573,-11.8074858657,-7.1642280775,-9.45693909083
-6.63743224684,-10.4668259591,-7.62823200879,-11.2733416785
-5.45447233794,-7.96616605246,-6.75223594008,-8.45974426616
-8.27151242903,-7.58550614585,-5.70623987136,-7.12614685383
-9.71855252013,-6.74484623924,-6.42024380265,-7.64254944149
-7.50559261124,-2.59418633263,-6.97424773393,-4.31895202916
-6.38263270234,-0.183526426019,-7.19825166522,-3.66535461683
-4.07967279344,2.89713348059,-6.0522555965,-1.6617572045
-3.45671288454,3.2577933872,-4.53625952779,1.04184020784
0.926247024359,3.04845329381,-4.17026345907,0.725437620171
4.72920693326,5.61911320042,-2.69426739036,3.1090350325
4.81216684216,5.81977310703,-4.59827132165,3.75263244484
2.33512675106,-0.159566986356,-7.05227525293,-2.01377014283
2.95808665996,-0.198907079746,-6.53627918421,0.699827269502
2.07104656886,-0.748247173135,-5.4802831155,4.23342468184
0.774006477757,-3.80758726652,-5.48428704679,2.84702209417
-0.813033613344,-1.79692735992,-3.97829097807,-0.429380493497
0.619926295556,1.57373254669,-4.13229490936,3.25421691883
1.13288620445,1.94439245331,-3.79629884064,2.11781433117
2.09584611336,5.29505235991,-1.61030277193,5.0814117435
1.98880602225,9.96571226653,-0.464306703214,9.10500915583
4.42176593115,15.5463721731,1.1716893655,12.0686065682
7.60472584005,18.2670320797,2.04768543421,14.6322039805
8.02768574896,12.9676919864,1.84368150293,12.8258013928
6.84064565785,14.398351893,0.799677571646,12.8893988052
7.49360556675,13.7490117996,-1.03432635964,8.9429962175
7.24656547565,13.1196717062,0.101669709074,9.29659362983
10.3495253846,11.4803316128,-0.56233422221,7.93019104216
10.8424852935,7.12099151941,-1.1163381535,4.5537884545
9.50544520235,7.20165142602,-1.50034208478,5.59738586683
9.10840511124,6.68231133263,-0.894346016068,8.30098327916
13.8213650201,11.7129712392,-1.06834994735,12.5645806915
14.494324929,11.8036311458,-3.37235387864,15.7181781038
13.6272848379,10.5442910525,-1.22635780992,12.3317755162
12.6002447468,10.8049509591,-1.93036174121,10.8153729285
15.5032046557,4.45561086568,-5.06436567249,6.71897034083
14.3661645646,3.82627077229,-5.43836960378,7.76256775316
10.0991244735,8.4269306789,-5.57237353507,8.8961651655
12.0020843824,6.43759058551,-6.66637746635,8.70976257783
13.4950442913,7.25825049212,-6.19038139764,8.86335999016
12.3780042002,4.07891039874,-5.87438532892,5.23695740249
9.54096410914,6.44957030534,-4.48838926021,4.81055481483
9.61392401804,5.66023021195,-4.80239319149,3.22415222716
8.31688392694,2.91089011857,-6.18639712278,1.38774963949
8.31984383584,5.09155002518,-2.85040105406,2.54134705183
10.9328037447,10.1222099318,-0.794404985349,6.69494446416
8.51576365364,7.1928698384,-2.01840891664,4.20854187649
5.74872356254,8.61352974501,-1.75241284792,3.87213928883
2.57168347144,5.30418965162,-2.46641677921,2.77573670116
-0.725356619663,0.71484955823,-4.34042071049,0.0593341134918
1.12760328923,3.73550946484,-4.00442464178,-0.727068474174
1.55056319814,1.93616937145,-2.94842857306,-1.97347106184
1.55352310704,-1.08317072194,-2.57243250435,-3.69987364951
-0.993516984068,-2.20251081533,-1.73643643563,-4.01627623718
-2.07055707517,1.07814909128,1.40955963308,-2.61267882484
1.15240283373,5.49880899789,3.7655557018,-0.82908141251
-0.794637257368,-6.6105310955,0.651551770512,-4.86548400018
-2.60167734847,2.79012881111,0.0975478392247,-3.66188658784
-3.39871743957,-1.36921128228,0.613543907941,-4.99828917551
-4.51575753067,-5.48855137567,0.569539976656,-8.91469176318
-5.95279762177,-4.23789146906,2.38553604537,-7.04109435084
-6.58983771287,-5.17723156245,2.97153211408,-5.88749693851
-6.19687780397,-8.37657165584,1.3175281828,-5.13389952618
-8.65391789507,-11.3159117492,-0.736475748487,-7.33030211385
-9.56095798617,-8.11525184262,-1.79047967977,-8.84670470151
-10.2979980773,-12.074591936,-2.32448361106,-11.0931072892
-11.7050381684,-8.48393202939,0.361512457657,-9.94950987685
-9.18207825947,-6.72327212278,0.747508526372,-6.62591246451
-7.63911835057,-6.90261221617,0.523504595085,-4.82231505218
-4.72615844168,0.198047690439,4.4795006638,-1.20871763985
-7.43319853278,-0.471292402955,5.82549673252,-3.68512022751
-11.1902386239,-3.22063249634,6.96149280123,-3.47152281518
-12.167278715,-2.64997258973,5.44748886994,-5.03792540285
-11.4143188061,-7.00931268312,5.96348493866,-7.54432799052
-13.0213588972,-9.80865277651,6.63948100737,-5.74073057819
-12.5483989883,-7.8879928699,6.45547707609,-4.17713316585
-5.34543907938,-6.21733296329,7.9114731448,-3.82353575352
-3.45247917048,-5.68667305668,6.66746921352,-4.04993834118
-4.87951926158,-4.72601315007,9.84346528223,1.86365907115
-1.29655935268,-5.15535324346,10.5594613509,1.01725648348
-2.62359944378,-7.43469333685,9.48545741966,-0.269146104187
-3.93063953488,-7.12403343024,9.89145348838,-1.16554869185
-25.7786373546,-13.7811119186,5.33206395349,-20.1472638082
-25.2127040892,-14.2653426856,4.92884616485,-17.0830463171
-24.5867708238,-12.5495734527,5.31562837621,-17.048828826
-21.2008375584,-11.3338042197,5.60241058758,-14.7746113349
-20.2349042929,-14.5380349867,3.53919279894,-16.0603938439
-20.0989710275,-16.9622657537,2.2559750103,-20.0161763528
-20.5830377621,-11.9164965208,3.00275722166,-13.5919588617
-20.4271044967,-14.9007272878,1.13953943302,-13.4577413706
-17.3611712312,-14.9249580548,1.29632164439,-14.2335238796
-11.0452379658,-9.63918882186,1.06310385575,-11.0793063885
-10.1693047004,-8.28341958889,0.989886067115,-8.37508889742
-11.1033714349,-4.24765035592,3.77666827848,-6.22087140635
-13.3174381695,-17.381881123,1.48345048984,-15.8366539153
-10.0915049041,-13.63611189,2.0102327012,-8.6724364242
-10.3355716387,-15.250342657,0.0570149125615,-9.13821893313
-5.83963837324,-8.66457342404,0.0337971239242,-7.84400144206
-2.59370510781,-3.97880419108,2.99057933529,-3.22978395098
-3.47777184238,-7.16303495811,2.80736154665,-5.33556645991
-5.35183857695,-5.06726572513,2.82414375801,-5.80134896883
-5.65590531153,-5.57149649216,2.19092596937,-5.56713147776
-4.9599720461,1.23427274081,1.37770818074,-3.80291398669
-2.54403878067,-4.66995802622,-1.1555096079,-0.488696495613
-3.92810551525,3.56581120675,-1.87872739654,-5.02447900454
-2.04217224981,3.49158043972,0.798054814824,-0.500261513469
1.38376101561,-11.2926503273,-4.93516297381,-2.0860440224
-1.58030571896,-7.41688109434,-2.77838076245,-4.38182653132
-3.37437245353,-4.54111186137,0.298401448912,-5.07760904025
-5.21843918811,-8.14534262841,-0.334816339726,-5.38339154918
1.44749407732,-7.21957339543,-3.48803412836,-4.7291740581
5.87342734275,3.45619583754,-1.511251917,-1.01495656703
3.01936060818,6.26196507051,-0.35446970564,3.87926092404
3.0052938736,0.377734303474,0.592312505723,6.38347841512
5.60122713903,3.23350353644,2.03909471709,4.91769590619
2.85716040446,3.28927276942,2.63587692845,4.63191339726
4.87309366988,6.96504200239,2.58265913981,5.59613088834
10.3290269353,8.81081123536,-1.49055864883,7.79034837941
7.63496020074,3.68658046833,-2.17377643746,5.17456587048
5.89089346617,1.55234970129,-4.0069942261,4.14878336156
9.0268267316,5.05811893427,-2.79021201474,3.91300085263
10.482759997,4.53388816724,-3.17342980338,6.5072183437
10.4186932625,7.35965740021,-4.27664759201,13.1914358348
17.1346265279,12.6954266332,-1.51986538065,17.9556533258
20.6205597933,14.1611958661,-2.48308316929,22.2098708169
20.8264930587,7.01696509912,-4.90630095793,16.154088308
20.7924263242,13.1127343321,-3.19951874657,13.7383057991
18.0683595896,8.25850356506,-5.2827365352,10.6425232901
15.884292855,10.544272798,-2.62595432384,10.3967407812
11.4402261204,3.14004203099,-4.24917211248,3.40095827229
11.9361593859,3.33581126397,-5.79238990111,4.97517576336
11.9420926513,9.51158049694,-3.68560768975,10.5893932544
15.8080259167,11.6773497299,-2.70882547839,12.5336107455
17.5139591822,6.16311896288,-2.11204326703,9.65782823658
15.5998924476,13.1588881958,0.584738944333,14.5320457277
15.445825713,18.6246574288,0.331521155695,16.9962632187
13.5517589784,10.0704266618,-2.78169663294,14.6104807098
15.4776922439,8.03619589475,-2.79491442158,12.8846982009
13.7836255093,12.4519651277,-3.71813221022,11.5489156919
11.0995587747,17.1977343607,-1.13134999885,14.663133183
9.81549204015,8.27350359367,-4.37456778749,7.60735067409
9.68142530557,8.81927282664,-2.86778557613,8.25156816517
13.557358571,17.4450420596,-1.47100336477,14.0257856562
12.0632918364,14.1508112926,-0.714221153406,11.0800031473
15.5792251019,12.3065805255,0.0825610579577,12.5142206384
20.5451583673,18.4023497585,1.63934326932,17.4784381295
20.3510916327,17.6981189915,2.12612548068,20.2326556205
14.7170248981,16.3938882245,0.392907692045,14.2468731116
11.3229581636,13.2496574574,-1.63031009659,8.08109060268
8.64889142899,9.6254266904,-1.63352788523,5.98530809375
9.39482469442,8.52119592337,-1.52674567387,6.53952558482
9.51075795984,5.64696515633,-2.89996346251,2.2737430759
7.52669122527,2.40273438931,-5.97318125114,1.40796056697
7.7526244907,2.31850362228,-6.17639903978,1.50217805805
5.33855775613,2.96427285525,-5.04961682842,4.70639554912
5.68449102156,-2.49995791178,-7.20283461706,-1.07938695981
4.61042428698,0.485811321185,-5.55605240569,-2.19516946873
-0.523642447588,1.30158055415,-2.72927019433,-0.0909519776615
-2.41770918216,2.34734978713,-1.08248798297,-1.67673448659
-0.821775916731,-3.2768809799,-2.15570577161,-1.18251699552
-1.4958426513,-1.22111174693,-2.11892356024,-0.148299504443
-1.25990938588,-0.585342513965,-2.38214134888,0.745917986631
-0.61397612045,6.29042671901,1.90464086248,2.1401354777
2.32195714498,-0.0938040480214,0.851423073844,-0.855647031225
-1.4921095896,-2.22803481505,0.998205285205,-2.68142954015
-1.46617632417,0.877734417918,2.03498749657,-3.05721204908
-2.38024305874,6.11350365089,4.64176970793,0.637005441997
0.415690206686,3.66927288386,5.57855191929,-0.548777066928
-1.40837652789,4.40504211683,5.70533413065,2.38544042414
-2.52244326246,3.5608113498,4.20211634202,0.459657915217
-4.50650999703,2.83658058277,-0.17110144662,-0.136124593711
-4.23057673161,-4.51765018427,-0.714319235258,-4.06190710264
-3.69464346618,1.01811904871,1.9624629761,-3.25768961156
-4.42871020075,3.64388828168,1.85924518747,0.166527879508
-4.35277693532,1.99965751465,2.36602739883,1.71074537058
-4.43684366989,3.93542674762,2.99280961019,-2.73503713834
-2.38091040447,5.25119598059,3.42959182155,-1.95081964727
1.56502286096,6.04696521356,1.76637403292,0.383397843805
0.830956126389,7.15273444653,2.54315624428,4.65761533488
-0.553110608183,13.7385036795,6.17993845564,11.9618328259
-3.20717734276,3.71427291246,3.756720667,2.76605031702
-3.36124407733,1.92004214544,3.32350287837,4.67026780809
-3.9353108119,3.89581137841,4.59028508973,5.92448529917
-5.69937754648,3.55158061138,5.04706730109,5.87870279024
-2.67344428104,2.93734984435,6.56384951245,5.23292028132
-1.21751101562,2.52311907732,5.41063172382,5.66713777239
1.17842224981,0.998888310289,3.70741393518,4.15135526346
-0.755644484765,3.65465754326,2.11419614654,5.17557275454
-1.24971121934,2.81042677623,1.0509783579,5.3197902456
-0.083777953907,-2.3838039908,1.51776056927,1.99400773668
-0.927844688482,1.16196524217,2.28454278063,4.00822522776
-1.81191142305,-2.08226552486,2.01132499199,-0.347557281173
0.294021842372,-2.94649629189,1.62810720335,-2.4033397901
-3.2300448922,-5.25072705892,2.44488941472,-2.57912229903
-7.18411162677,-8.14495782595,-0.158328373924,-6.46490480795
-6.10817836134,-5.24918859298,0.528453837442,-5.66068731688
-7.33224509592,-7.18341936001,1.1052360488,-10.3464698258
-10.8363118305,-9.51765012704,-0.517981739835,-11.0122523347
-7.77037856506,-11.5618808941,-3.47119952847,-9.75803484366
-9.22444529963,-12.1461116611,-1.80441731711,-12.8838173526
-11.5885120342,-10.9303424281,2.03236489425,-15.2695998615
-14.5025787688,-19.8345731952,-3.72085289439,-16.4253823704
-13.5866455034,-17.8288039622,-3.82407068302,-16.9611648794
-12.3107122379,-15.3830347292,-2.97728847166,-13.7369473883
-12.9947789725,-15.4072654963,-3.0705062603,-12.7327298972
-10.6188457071,-17.9714962633,-2.63372404894,-13.0385124061
-8.20291244164,-15.5857270303,-1.70694183757,-14.6442949151
-7.19697917622,-14.3199577973,-1.07015962621,-12.940077424
-7.77104591079,-13.3641885644,-1.78337741485,-10.9058599329
-12.9951126454,-13.2384193314,2.25340479651,-15.8216424419
0.656619047626,3.20438095239,1.21366666666,1.14628571428
6.03085154063,1.16540056023,-2.19338935575,3.26813445377
4.24508403362,-2.21357983193,-0.280445378157,-1.70001680674
3.47931652662,5.10743977592,0.892498599434,1.52183193277
1.77354901961,1.13845938376,1.40544257703,-0.40631932774
0.717781512612,-4.1005210084,-1.20161344538,-3.31447058824
0.132014005605,-3.38950140055,-1.67866946779,-2.02262184875
3.2762464986,4.42151820729,0.9942745098,2.86922689075
2.0004789916,2.31253781513,2.23721848739,2.04107563024
-2.8352885154,-4.73644257702,-0.0698375350166,-1.92707563026
-2.9710560224,-1.14542296918,-1.10689355743,-0.495226890762
-2.43682352941,-0.154403361335,0.116050420165,0.57662184873
-2.17259103641,3.30661624651,0.728994397756,-0.461529411772
-2.66835854341,1.59763585435,-0.218061624653,-0.619680672276
-0.794126050416,-3.26134453781,-0.195117647061,-2.04783193278
-4.55989355742,1.41967507004,1.71782633053,1.23401680672
-4.42566106442,-2.78930532213,1.06077030812,-1.23413445379
-3.34142857143,-1.29828571428,0.823714285712,-0.00228571429034
-7.67719607843,-2.24726610644,1.6866582633,-2.7804369748
-5.04296358543,-4.33624649859,-0.890397759105,-0.528588235298
-2.72873109244,3.32477310925,-1.65745378151,6.4232605042
-2.66449859944,2.10579271709,-3.36450980392,2.99510924369
4.12973389356,-2.22318767507,-4.47156582633,-2.59304201681
4.12396638656,-1.91216806722,-0.51862184874,-0.141193277315
2.86819887955,-3.04114845938,0.164322128852,1.60065546218
3.58243137255,-2.85012885154,0.557266106442,1.39250420168
-0.423336134452,0.270890756306,0.510210084032,-3.23564705883
-0.969103641455,5.16191036415,0.873154061625,-1.44379831933
-0.77487114846,1.88292997199,2.63609803921,-2.23194957984
-1.13063865546,1.51394957983,0.999042016807,-2.95010084034
-3.77640616247,-3.27503081232,-0.938014005602,-4.13825210084
-1.19217366947,1.00598879552,-0.0250700280103,2.67359663865
2.99205882353,0.937008403362,-0.50212605042,2.49544537815
6.46629131653,0.838028011203,-0.709182072827,-0.102705882353
