-2.18796874999,6.24244186047,2.28982194767,0.871584302323
-1.17387057086,2.36749198865,0.714673422905,-0.147560972124
0.830227608276,6.32254211683,3.14952489814,1.14329375343
3.40432578741,7.58759224501,1.93437637337,0.654148478984
3.44842396654,7.0826423732,-0.0407721513948,-1.23499679546
8.21252214568,-0.0723074986236,-2.75592067616,-3.45414206991
6.12662032481,-2.96725737044,-3.83106920093,-2.37328734435
3.54071850394,-0.202207242259,-2.6362177257,-3.1224326188
2.73481668308,-0.587157114078,0.168633749539,-2.77157789325
4.80891486221,-0.102106985898,3.11348522477,0.679276832308
8.79301304134,2.79294314229,3.41833670001,3.24013155786
5.90711122048,1.68799327047,1.17318817524,5.04098628342
3.96120939961,7.16304339865,0.0580396504738,5.85184100897
13.7353075787,7.50809352683,0.202891125706,10.0926957345
13.1694057579,11.843143655,0.927742600939,8.44355046008
8.36350393701,6.46819378319,0.452594076174,6.86440518563
1.68760211615,3.89324391137,-0.382554448594,4.15525991119
3.29170029528,4.03829403955,-0.277702973359,2.91611463674
2.37579847442,1.84334416774,-0.502851498126,3.56696936229
0.0498966535488,0.69839429592,-1.33800002289,1.63782408785
-1.57600516732,-5.5965555759,-0.653148547659,-5.4813211866
1.59809301182,-0.411505447719,0.851702927574,-6.68046646104
0.432191190946,-0.626455319532,-0.243445597192,-5.20961173549
3.89628937008,0.888594808646,0.19140587804,-3.38875700994
-0.999612450782,0.253644936827,0.0762573532757,0.282097715617
0.724485728351,0.338695065009,1.41110882851,-0.0170475588284
-3.03141609252,-3.44625480681,0.865960303743,-3.78619283327
-7.07731791338,-3.14120467863,1.19081177898,-2.00533810772
-3.08321973425,2.77384544956,3.10566325421,2.49551661783
2.11087844488,4.57889557774,2.43051472944,4.67637134339
0.65497662402,1.71394570592,2.73536620468,5.66722606894
4.27907480315,3.6489958341,2.59021767991,6.1480807945
2.44317298229,2.50404596228,1.64506915514,6.00893552005
3.24727116142,-0.210903909538,-0.350079369622,2.2197902456
-4.32863065945,-6.34585378135,-2.52522789439,-2.57935502884
-4.39453248031,-4.65080365317,-1.71037641916,-1.06850030329
-5.09043430118,-1.50575352499,-0.555524943922,0.082354422264
-7.54633612205,-3.86070339681,-1.81067346869,2.73320914782
-6.00223794291,-1.52565326863,-3.40582199346,2.29406387337
-2.98813976378,-2.76060314045,-4.80097051822,-0.665081401074
-1.24404158464,-2.34555301227,-2.01611904299,1.86577332448
-4.10994340551,-5.59050288409,-1.46126756776,-2.90337194997
-3.90584522637,-1.4154527559,-2.11641609252,-0.572517224411
2.82825295276,3.46959737228,-1.32156461729,7.17833750114
3.18235113189,5.47464750046,-1.12671314206,8.2591922267
3.85644931102,-0.570302371358,-1.85186166682,3.80004695225
-0.0394525098382,1.48474775682,-0.607010191588,3.9209016778
-1.01535433071,3.39979788501,-0.522158716354,4.58175640336
2.48874384843,1.53484801319,1.43269275888,3.16261112891
0.812842027561,2.23989814137,-0.0924557658873,4.47346585447
1.03694020669,-3.53505173045,-2.39760429065,0.23432058002
-5.19896161417,-5.08000160227,-2.23275281542,-1.79482469443
-6.20486343504,-8.82495147409,-2.59790134019,-1.26396996887
-3.9307652559,-6.16990134591,-2.84304986495,-1.09311524332
-9.35666707677,1.87514878227,-1.86819838972,3.02773948224
-6.11256889764,-5.75980108954,-1.65334691449,-0.581405792211
-4.0384707185,-7.79475096136,-2.08849543925,-2.76055106666
-5.82437253937,-7.69970083318,-2.38364396402,-5.4996963411
-5.49027436024,-8.844650705,-1.92879248879,-7.90884161555
-5.3961761811,-10.5296005768,-0.253941013552,-7.24798688999
-11.122078002,-13.9745504486,0.770910461681,-7.61713216444
-12.2379798228,-12.8195003205,0.665761936914,-11.8262774389
-12.2438816437,-12.0844501923,0.910613412148,-14.2954227133
-12.1497834646,-8.91940006409,0.985464887382,-13.2145679878
-15.7756852854,-10.0943499359,0.360316362616,-15.1937132622
-16.4215871063,-11.2192998077,0.925167837848,-14.3828585367
-18.3674889272,-5.19424967955,2.60001931308,-7.82200381112
-9.87339074803,-8.79919955136,-0.135129211685,-11.2711490856
-4.9792925689,-7.34414942318,-0.01027773645,-7.64029436001
-6.00519438977,-2.219099295,1.63457373878,-2.79943963445
-8.13109621063,-1.64404916682,2.60942521402,-2.3385849089
-4.1469980315,-0.178999038635,3.05427668925,-1.68773018335
-9.78289985237,2.50605108955,2.92912816448,-1.96687545779
-4.83880167323,1.62110121773,0.0839796397177,0.173979267761
-1.5547034941,6.75615134591,-0.0111688850502,4.85483399331
0.629394685035,1.56120147409,-0.376317409817,1.24568871887
4.07349286417,-0.363748397725,-0.561465934583,2.39654344442
-0.262408956696,-0.668698269546,-0.076614459349,-1.57260183002
-0.478310777566,1.53635185863,0.0282370158839,-1.00174710447
-2.38421259843,2.60140198682,1.54308849112,-0.520892378916
-0.660114419294,-0.733547885,1.28793996635,-2.48003765336
2.08398375984,-4.66849775682,-0.647208558416,-4.27918292781
-2.18191806103,-2.87344762864,-2.35235708318,-4.86832820225
7.36218011811,1.32160249954,0.372494392052,1.6225265233
3.40627829724,7.08665262773,2.86734586729,6.01338124885
2.69037647637,2.43170275591,0.372197342518,3.63423597441
9.55447465551,1.39675288409,-0.372951182249,3.75509069996
11.9685728346,4.16180301227,-0.958099707013,7.25594542552
7.34267101378,5.13685314045,-0.00324823178198,3.99680015107
3.62676919291,7.94190326863,2.24160324345,4.74765487662
1.04086737204,11.1569533968,4.20645471869,5.33850960218
2.95496555118,12.822003525,6.84130619392,9.12936432773
11.1190637303,4.63705365318,3.94615766915,5.23021905329
2.71316190944,-1.20789621864,-0.0389908556135,2.42107377884
1.34726008858,-1.17284609046,-1.16413938038,1.38192850439
2.00135826771,-2.55779596228,-1.01928790515,-5.44721677005
2.22545644684,0.137254165908,-0.574436429912,-3.5163620445
2.82955462598,0.442304294087,-1.27958495468,-2.69550731894
3.65365280511,1.14735442227,-0.904733479445,-1.54465259339
0.727750984242,-5.64759544955,-3.36988200421,-5.55379786784
5.10184916338,-4.65254532137,-1.36503052898,-2.66294314228
10.1159473425,0.952504806814,0.229820946255,-1.13208841673
4.30004552165,1.72755493499,-1.42532757851,-0.851233691174
4.95414370078,2.25260506317,-1.46047610328,-2.47037896562
3.06824187992,4.59765519136,-0.525624628046,-0.229524240067
5.19234005905,2.50270531954,0.249226847189,0.881330485488
3.24643823818,5.46775544772,3.30407832242,2.74218521104
6.09053641731,6.4728055759,1.70892979765,5.7530399366
10.1546345964,6.73785570408,0.693781272888,10.0738946621
9.70873277558,7.79290583227,2.15863274812,6.8447493877
9.46283095472,5.37795596045,1.95348422336,5.87560411326
-2.62307086615,0.743006088629,0.20833569859,0.536458838811
1.86102731299,-1.18194378319,-0.186812826176,-5.84268643564
4.34512549212,-2.71689365501,-2.02196135094,-5.14183171008
2.71922367125,-4.91184352682,-1.96710987571,-5.15097698453
-2.80667814962,-4.26679339864,-2.48225840048,-4.04012225897
0.857420029519,-0.071743270466,-3.27740692524,0.84073246658
-0.56848179135,-3.34669314228,-1.87255545001,1.30158719213
-1.69438361222,-5.4516430141,-2.46770397478,-5.14755808231
-2.27028543308,-2.13659288592,-1.19285249954,-6.38670335676
-7.18618725395,-3.79154275774,-1.87800102431,-5.0358486312
-6.94208907482,-3.08649262955,-0.523149549077,-5.13499390565
-2.98799089568,-3.52144250137,-1.10829807384,-0.0941391800952
-5.66389271654,1.93360762681,-0.75344659861,4.08671554546
-3.24979453741,2.74865775499,-0.318595123375,3.83757027101
4.79430364172,8.17370788317,2.55625635186,11.1784249966
2.33840182086,11.0687580114,4.54110782709,13.7792797221
1.24249999999,7.02380813953,2.89595930232,11.2701344477
1.86615552327,-1.8996366279,3.01464026163,2.01977107558
3.63731596778,-0.971190086519,2.94969021814,-0.0302191677392
1.2484764123,-2.93274354513,1.91474017465,-0.840209411054
2.57963685682,-1.87429700375,3.03979013116,-3.65019965437
-1.23920269867,-0.965850462362,3.14484008767,-1.31018989769
-1.90804225416,0.852596079021,1.15989004417,-1.190180141
-4.49688180964,-2.0189573796,-1.88505999931,-4.62017038432
-4.08572136513,-4.47051083821,-1.05001004281,-4.86016062764
-3.41456092061,-7.78206429683,-2.08496008629,-4.76015087095
-9.33340047609,-6.83361775544,-1.42991012978,-7.96014111427
-11.1322400316,-10.7851712141,-3.17486017327,-11.6901313576
-9.23107958706,-4.08672467267,-2.94981021677,-7.7401216009
-7.70991914255,1.75172186871,0.805239739744,-1.12011184422
-6.40875869803,4.25016841009,4.04028969626,1.19989791247
-4.31759825352,6.73861495148,5.02533965276,6.14990766915
1.543562191,9.89706149286,5.50038960927,8.74991742583
2.95472263551,7.22550803425,4.40543956578,6.58992718252
5.32588308003,0.643954575633,2.06048952229,4.9299369392
-2.18295647546,1.03240111702,2.0355394788,4.39994669589
-1.95179603094,3.4108476584,1.52058943531,3.73995645257
4.64936441358,4.13929419978,0.515639391822,2.25996620925
1.79052485809,2.62774074117,1.07068934833,0.0999759659371
2.40168530261,3.21618728255,1.49573930484,2.87998572262
8.86284574712,0.104633823936,1.34078926135,6.1099954793
10.9740061916,3.68308036532,1.96583921786,7.95000523599
6.92516663615,0.301526906704,0.450889174374,3.09001499267
-0.773672919331,-0.83002655191,-0.174060869116,-0.209975250644
4.32748752518,-3.05158001053,-0.399010912608,-0.28996549396
-2.0013520303,-2.84313346914,-1.2939609561,-1.34995573728
-3.72019158578,-0.954686927758,-2.09891099959,-5.19994598059
-1.24903114127,-3.20624038637,-1.67386104308,-6.14993622391
-0.66787069675,-2.40779384499,-1.80881108657,-1.95992646723
7.34328974777,-3.64934730361,-4.06376113006,0.170083289458
1.53445019228,-0.820900762221,-0.0587111735495,-0.799906953857
-4.0243893632,3.00754577916,0.20633878296,0.550102802827
0.716771081312,7.30599232055,-1.48861126053,1.21011255951
1.85793152582,4.16443886193,-2.92356130402,-0.259877683806
2.84909197034,-0.937114596683,-4.34851134751,-4.93986792712
5.96025241486,-1.0186680553,-3.993461391,-4.99985817044
12.8514128594,-2.62022151392,-2.11841143449,-2.94984841375
9.21257330389,1.07822502747,-0.55336147798,2.02016134293
9.4237337484,5.51667156885,0.321688478531,4.96017109961
11.7048941929,1.25511811024,-1.17326156496,-0.329819143703
7.72605463743,-0.226435348381,-0.81821160845,-0.919809387019
5.65721508195,7.152011193,1.30683834806,3.45020036966
5.38837552647,11.3704577344,0.861888304571,7.04021012635
8.94953597098,3.68890427578,-1.10306173892,2.06021988303
4.9306964155,-1.21264918284,-1.97801178241,-2.21977036028
-1.85814313999,-5.00420264146,-3.6529618259,-3.9297606036
-5.38698269547,-8.32575610007,-4.65791186939,-6.32975084692
-8.97582225096,-6.66730955869,-3.90286191288,-10.0097410902
-9.82466180644,-4.45886301731,-3.62781195637,-7.28973133355
-6.71350136193,-2.42041647592,-3.32276199986,-2.65972157687
-2.30234091741,1.03803006546,-3.91771204335,0.970288179818
1.0588195271,-0.0235233931526,-2.44266208684,3.8502979365
-1.18002002838,0.924923148232,-1.72761213033,0.930307693186
-4.85885958387,4.21336968962,-2.35256217382,1.52031744987
-4.60769913935,-1.848183769,-1.52751221731,-1.07967279345
-0.556538694833,-0.0797372276174,-0.882462260804,-0.779663036762
-2.65537825032,-3.55129068623,-1.81741230429,-0.189653280079
-4.5542178058,-1.33284414485,-0.522362347783,1.16035647661
-2.69305736129,2.14560239654,-1.68731239127,2.85036623329
-1.57189691677,-2.55595106208,-1.68226243476,1.38037598997
-2.57073647226,-3.4275045207,-2.23721247825,-1.61961425334
-4.75957602774,-1.82905797931,-1.86216252174,-0.98960449666
-5.28841558323,2.80938856207,0.482887434766,3.96040526002
-1.63725513871,0.0778351034569,0.727937391275,2.92041501671
-2.9560946942,0.21628164484,1.36298734779,3.63042477339
-3.39493424968,1.39472818623,1.42803730429,1.27043453008
-1.85377380516,3.50317472761,0.0830872608058,4.50044428676
-0.502613360648,-2.298378731,-4.50186278268,0.820454043443
2.04854708386,-3.40993218962,-2.01681282618,1.03046380013
2.31970752838,-4.22148564824,-0.741762869666,1.33047355681
2.1708679729,-4.39303910685,-2.52671291316,2.01048331349
6.11202841741,-1.25459256547,-0.181662956646,3.16049307018
7.25318886193,-1.10614602409,-0.806613000135,2.19050282686
6.76434930644,3.3923005173,0.158436956375,3.61051258355
5.76550975096,3.83074705868,1.87348691289,5.19052234023
0.446670195473,4.90919360007,3.61853686939,6.67053209691
-0.39216936001,5.81764014145,3.4835868259,8.3105418536
0.928991084504,0.596086682835,2.70863678241,6.51055161028
-5.83984847098,-0.285466775778,4.13368673892,2.30056136696
-4.80868802646,0.702979765603,5.40873669543,-0.00942887635119
-4.26752758195,-1.00857369301,5.16378665194,-0.849419119668
-9.01636713743,-0.390127151626,6.05883660845,-1.81940936298
-9.63520669292,1.56831938976,4.47388656496,0.5806003937
-9.8340462484,4.07676593114,3.14893652147,3.20061015038
-5.49288580389,0.66521247253,3.08398647798,0.460619907068
-0.481725359372,-2.47634098609,3.10903643449,-1.33937033625
0.549435085148,2.3421055553,2.394086391,3.32063942043
-1.05940447034,1.55055209668,0.0891363475112,2.51064917712
-0.738244025822,3.45899863806,3.04418630402,0.890658933803
5.39291641869,-5.20255482055,1.02923626053,-3.43933130951
4.74407686321,-3.22410827917,1.39428621704,-3.49932155283
1.17523730773,3.42433826222,3.21933617355,0.0206882038538
1.78639775224,5.4627848036,0.744386130062,3.03069796054
0.177558196756,1.76123134498,-0.200563913428,1.74070771722
1.76871864127,3.26967788637,2.10448604308,1.7107174739
-1.47012091421,1.15812442775,1.67953599959,0.400727230589
-6.4689604697,1.95657096914,3.1845859561,1.98073698727
-6.14780002518,-1.90498248948,2.14963591261,-0.179253256044
-0.376639580667,1.6634640519,2.06468586912,0.280756500641
2.19452086385,-0.408089406708,-0.15026417437,-7.17923374268
3.31568130836,-5.30964286533,-1.73521421786,-11.029223986
-1.19315824712,-2.69119632394,-3.68016426135,-8.78921422931
-3.33199780261,-2.59274978256,-4.26511430484,-4.85920447262
3.01916264191,-1.52430324117,-1.94006434833,-2.72919471594
3.61032308642,2.28414330021,-2.11501439182,0.770815040743
1.89148353094,3.2025898416,-3.78996443531,2.36082479743
6.70264397546,2.73103638298,-4.0849144788,2.11083455411
7.26380441997,3.75948292436,-2.06986452229,1.5808443108
-2.52503513551,4.19792946575,-1.75481456578,-2.71914593252
0.836125309001,-4.84362399287,-3.38976460927,-5.50913617584
-3.87271424648,-2.30517745148,-2.33471465276,-6.54912641915
3.41844619803,-3.4567309101,-2.82966469625,-4.74911666247
-6.55039335745,-5.05828436872,-1.97461473974,-6.65910690579
-2.80923291294,-3.45983782733,-1.65956478323,-5.2190971491
-4.21807246842,-4.90139128594,-2.60451482672,-5.33908739242
-0.926912023908,-8.40294474456,-2.35946487021,-3.93907763573
-2.72575157939,-3.09449820318,1.4655850863,-2.02906787905
-3.30459113487,-3.7560516618,0.410635042806,1.53094187763
-1.04343069036,-1.17760512041,1.64568499932,0.890951634316
1.99772975416,4.51084142098,3.30073495583,4.500961391
6.31889019867,4.80928796236,2.98578491234,9.10097114768
3.62005064319,4.26773450374,3.90083486885,6.60098090437
1.6812110877,1.12618104513,1.73588482536,3.22099066105
4.97237153222,2.00462758651,0.800934781866,0.991000417735
2.58353197673,-1.1569258721,0.175984738376,-1.83898982558
-3.64210029068,-12.8795130814,-1.05142805233,-10.1865915698
-3.93146066996,-12.7524562809,-1.52510142946,-9.98455617103
-1.65082104924,-8.3053994804,-2.75877480659,-7.3325207723
-5.26018142852,-7.2883426799,-2.61244818371,-5.95048537356
-5.5695418078,-8.71128587941,-1.12612156084,-4.33844997482
-0.00890218708446,-4.47422907891,-0.0797949379721,-1.54641457609
3.45173743364,-1.58717227842,1.0365316849,-1.01437917735
-0.997622945644,-0.620115477923,-0.717141692228,-4.23234377861
-3.11698332493,-3.20305867743,1.17918493064,-4.71030837988
-4.0163437042,0.273998123066,2.17551155351,-2.49827298114
-5.36570408349,-3.08894507644,-1.00816182361,-5.11623758241
-1.31506446277,-8.81188827594,-3.18183520074,-5.34420218367
-8.74442484205,-6.54483147545,-3.25550857787,-7.24216678493
-5.72378522133,-9.05777467496,-1.539181955,-7.9001313862
-4.25314560061,-11.1707178745,-1.03285533213,-8.52809598746
-5.95250597989,-9.73366107397,-2.62652870926,-9.08606058872
-3.67186635917,-8.34660427348,-1.96020208639,-6.96402518999
-1.55122673845,-9.31954747298,-0.713875463516,-6.74198979125
-4.93058711773,-8.08249067249,-2.55754884064,-9.22995439251
-7.23994749701,-5.85543387199,-3.63122221777,-6.27791899378
-5.53930787629,-4.3783770715,-2.9048955949,-3.46588359504
-3.30866825557,1.468679729,0.26143102797,-0.893848196302
-0.558028634856,0.265736529491,2.17775765084,3.03818720243
-0.357389014134,5.15279332998,2.59408427371,3.34022260117
-1.30674939341,-0.540149869521,1.92041089658,-1.10774200009
0.593890227305,-0.933093069027,1.01673751945,-0.195706601356
4.01452984802,1.53396373147,3.02306414233,5.01632879738
3.38516946874,-1.09897946804,1.9693907652,5.65836419612
7.49580908946,3.17807733246,-0.744282611931,7.42039959485
12.4964487102,6.02513413295,1.24204401094,10.2524349936
12.6970883309,6.97219093345,2.34837063381,11.6144703923
6.50772795162,5.30924773394,0.444697256684,13.8265057911
3.68836757234,13.6763045344,-1.28897612045,14.8285411898
1.17900719306,8.87336133493,1.16735050242,11.0705765885
4.92964681378,2.09041813542,2.0736771253,3.69261198727
3.9302864345,2.09747493592,1.09000374817,7.29464738601
11.1709260552,6.39453173641,0.766330371038,10.5966827847
10.0715656759,9.51158853691,4.20265699391,7.57871818348
13.0622052967,12.7886453374,2.76898361678,7.73075358222
10.1128449174,11.2457021379,1.08531023965,8.48278898095
10.4634845381,10.2027589384,1.68163686252,7.05482437969
14.0341241588,12.6098157389,5.0679634854,10.1368597784
11.9547637795,13.8668725394,3.61429010827,13.8688951772
1.91540340025,2.96392933987,1.32061673114,5.1709305759
3.09604302097,2.60098614037,2.43694335401,6.97296597464
-0.923317358305,4.74804294086,1.73326997688,6.54500137337
0.90732226241,5.36509974135,1.63959659975,2.67703677211
5.37796188313,2.93215654185,0.0959232226232,4.23907217085
4.83860150385,7.92921334234,-0.0477501545047,9.31110756958
4.67924112457,5.85627014284,1.68857646837,8.70314296832
5.47988074529,6.49332694333,0.874903091239,8.50517836706
5.48052036601,8.42038374383,-1.42877028589,8.49721376579
2.08115998673,7.26744054432,0.0375563369798,5.25924916453
1.60179960745,1.68449734482,-2.22611704015,1.77128456327
1.47243922817,1.85155414531,-2.40979041728,0.333319962004
0.0330788488864,1.6186109458,-1.16346379441,-1.70464463926
-2.44628153039,3.3856677463,-1.21713717154,2.54739075948
-4.68564190968,0.582724546792,-1.78081054866,0.419426158213
-4.21500228895,-1.13021865271,-3.28448392579,-2.06853844305
-0.754362668235,-2.64316185222,-1.86815730292,-2.85650304431
-3.23372304752,-3.50610505172,-1.85183068005,-7.99446764558
-2.8830834268,-0.749048251229,-1.60550405718,-7.64243224684
1.73755619392,0.688008549263,-1.79917743431,-3.0803968481
3.56819581464,-1.38493465024,-0.502850811436,-0.758361449368
-2.58116456464,1.15212215025,1.21347581144,-2.08632605063
-5.33052494392,-2.01082104925,0.599802434308,-3.06429065189
-1.0398853232,-4.03376424876,0.276129057178,-4.41225525316
-0.299245702481,-1.83670744827,0.992455680049,-2.60021985442
-5.37860608176,-7.32965064777,-2.12121769708,-5.44818445568
-5.66796646105,-7.03259384728,-3.49489107421,-8.55614905695
-1.91732684032,-1.18553704678,-1.93856445134,-2.79411365821
1.9233127804,1.43151975371,-0.762237828465,0.157921740525
5.18395240112,7.58857655421,1.00408879441,6.80995713926
9.54459202183,14.9756333547,5.53041541728,13.311992538
3.05523164256,8.52269015519,6.19674204015,7.68402793674
0.955871263272,7.56974695569,4.58306866302,0.616063335471
1.28651088399,-0.733196243815,0.529395285892,-2.16190126579
2.62715050472,0.993860556679,0.405721908761,0.390134132945
-4.84220987457,5.60091735717,1.23204853163,2.55216953168
-11.1215702539,0.877974157669,0.148375154506,-2.32579506958
-8.20093063313,0.545030958161,1.10470177738,-0.353759670846
-5.25029101241,0.462087758657,1.14102840025,-1.21172427211
-4.48965139169,2.50914455915,0.597355023119,-1.70968887337
-5.52901177097,-0.343798640355,0.593681645991,-4.34765347464
-8.33837215025,-2.16674183986,0.520008268863,-5.0156180759
-3.06773252953,-0.439685039364,0.776334891732,-4.97358267716
-2.82709290881,2.29737176112,2.6026615146,-2.30154727843
-7.7864532881,0.834428561619,1.96898813748,-3.72951187969
-5.33581366737,3.54148536212,3.30531476035,-2.27747648095
-10.0551740467,2.09854216261,2.65164138322,-4.24544108222
-14.4545344259,-0.464401036897,0.947968006089,-6.93340568348
-14.3238948052,-7.7473442364,-0.425705371039,-12.6813702847
-15.1532551845,-3.93028743591,-1.72937874817,-11.749334886
-10.8626155638,-4.55323063541,-1.5730521253,-8.59729948727
-8.81197594306,-6.19617383492,-0.176725502426,-6.92526408853
-8.23133632234,-2.36911703442,0.889601120447,-8.6232286898
-2.24069670162,-0.142060233931,0.725927743317,-5.27119329106
-0.590057080899,5.67499656657,0.832254366189,-1.60915789233
-2.15941746018,2.48205336706,0.15858098906,-2.41712249359
-2.96877783946,0.909110167555,-1.03509238807,-1.23508709485
-7.16813821874,4.62616696805,-2.2887657652,-2.71305169612
-0.69749859802,2.42322376854,-2.21243914233,-3.85101629738
-0.936858977304,1.20028056904,-1.23611251945,-2.46898089864
0.393780643415,-3.62266263047,-3.00978589658,-5.06694549991
-1.43557973586,-4.63560582998,-4.75345927371,-3.68491010117
-0.764940115147,-3.33854902948,-6.83713265084,-0.382874702432
5.41569950557,2.63850777101,-3.29080602797,1.9691606963
9.8463391263,1.39556457151,-3.5244794051,1.89119609504
9.43697874701,-1.407378628,-3.03815278223,0.913231493778
6.52761836773,-5.3103218275,-3.11182615936,0.665266892514
0.118257988455,-4.99326502701,-2.69549953648,-1.86269770875
1.60889760917,-4.82620822652,-3.01917291361,-3.43066231001
3.03953722989,-2.73915142602,-2.73284629074,-0.508626911277
1.63017685061,-3.65209462553,-2.19651966787,0.40340848746
2.90081647133,-0.405037825032,-0.460193044999,3.3754438862
8.26145609205,0.17201897546,-1.18386642213,3.43747928493
5.06209571277,1.60907577596,1.15246020074,4.90951468367
10.0927353335,3.51613257645,1.52878682362,7.17155008241
3.60337495421,2.94318937694,1.67511344649,4.52358548114
6.06401457493,-3.25975382256,0.511440069356,-0.0143791201208
7.82465419565,-0.212697022067,2.42776669223,7.51765627862
2.10529381637,0.0643597784292,3.3340933151,5.78969167735
3.28593343709,-1.31858342108,2.28041993797,5.30172707609
1.62657305781,-2.38152662058,0.926746560843,3.01376247483
-2.40278732148,-11.1144698201,-0.416926816286,-5.65420212644
-1.91214770075,-9.3374130196,2.40939980659,-1.3921667277
-0.971508080038,-8.8203562191,2.25572642946,0.209868671035
1.36913154068,-8.49329941861,2.00205305233,0.611904069772
12.4832776163,5.20212572674,-0.701951308143,12.0309593023
13.8290466204,6.43550145349,0.832042265607,13.5169665869
6.36481562444,8.13887718023,1.10603583936,12.4429738715
8.32058462851,9.64225290698,3.78002941311,12.8489811562
4.43635363259,9.12562863372,4.64402298686,10.9949884408
6.76212263666,11.3190043605,2.10801656061,11.3309957254
4.53789164074,5.33238008721,0.282010134359,9.21700300998
4.83366064481,2.70575581395,-0.603996291889,7.25301029459
4.05942964889,4.5591315407,-0.320002718141,7.5190175792
3.86519865296,5.19250726745,-1.34600914439,6.38502486381
0.910967657037,2.62588299419,-1.40201557064,5.72103214841
-0.663263338891,5.01925872093,0.911978003111,8.64703943302
-4.54749433482,6.31263444767,3.38597157686,8.89304671763
1.64827466926,0.84601017442,1.80996515061,5.09905400224
-2.28595632667,0.779385901165,0.613958724362,3.60506128685
-4.1101873226,-0.0372383720933,-1.28204770189,2.29106857146
-1.39441831852,0.786137354655,-3.47805412814,3.14707585607
-4.53864931445,-5.00048691861,-4.41406055439,-1.32691685932
-1.29288031037,-3.80711119186,-3.44006698064,0.649090425287
6.6628886937,-5.88373546512,-2.57607340689,-1.5149022901
5.79865769778,-3.04035973837,-1.96207983314,0.251104994505
3.10442670185,-3.79698401163,-1.74808625939,0.587112279114
4.87019570592,-2.81360828488,-1.11409268564,1.24311956372
-0.414035290003,0.35976744186,2.08990088811,3.42912684833
2.83173371407,1.19314316861,-0.696105538136,3.03513413294
-0.942497281852,0.776518895349,-1.55211196439,1.85114141755
-9.76672827778,5.66989462209,1.14188160936,-0.24285129784
-5.31095927371,-4.02672965117,-0.774124816884,-6.29684401323
-2.64519026963,-1.87335392442,0.039868756865,-0.440836728622
5.14057873444,1.66002180232,-0.666137669385,-0.0848294440138
5.61634773852,-0.216602470933,-0.162144095635,-2.3388221594
0.592116742591,2.11677325581,1.21184947812,0.507185125204
-3.25211425333,-0.209851017444,0.555843051867,-1.96680759019
-3.75634524926,-2.8164752907,0.719836625616,-3.82080030558
-4.15057624519,2.90690043604,3.52383019937,-0.914793020967
-3.63480724111,2.19027616279,2.50782377312,-1.37878573636
-1.56903823704,2.42365188953,2.29181734687,-0.75277845175
2.88673076704,0.677027616275,0.00581092061839,1.75322883286
4.70249977111,0.350403343022,-1.80019550563,-0.920763882531
2.39826877518,1.40377906977,0.293798068118,-4.76475659792
6.05403777926,3.43715479651,4.45779164187,-0.488749313313
-2.03019321667,0.0505305232546,3.19178521562,-1.3627420287
-7.21442421259,-0.236093750005,0.45577878937,-3.50673474409
-4.29865520852,5.37728197674,2.31977236312,0.249272540514
-1.52288620444,4.21065770349,3.04376593687,-3.16472017488
-7.32711720037,5.44403343023,0.597759510621,-6.03871289027
-9.40134819629,-8.27259084303,0.0517530843699,-12.2727056057
-5.17557919222,-4.44921511628,1.60574665812,-8.71669832105
-6.03981018815,-0.775839389538,0.26974023187,-4.40069103644
-0.604041184073,-8.33246366279,-0.69626619438,-10.3246837518
-6.67827218,-7.02908793605,-1.42227262063,-10.3186764672
-3.74250317593,-8.50571220931,-1.90827904688,-13.9326691826
-6.08673417185,-10.1123364826,-2.32428547313,-14.806661898
-5.92096516778,-7.55896075582,-3.43029189938,-11.7006546134
-10.9651961637,-8.98558502907,-2.79629832563,-14.8046473288
-10.8694271596,-9.25220930233,-3.88230475188,-15.4886400442
-9.83365815555,-9.79883357559,-4.31831117813,-14.1926327596
-5.31788915148,-6.62545784884,-2.85431760438,-7.63662547496
-0.532120147403,-3.1620821221,-1.79032403063,-7.48061819035
-5.86635114333,-4.98870639535,-1.48633045688,-8.99461090574
-2.21058213925,-1.11533066861,0.217663116875,-6.05860362113
4.67518686482,-4.44195494186,0.681656690625,-4.27259633652
4.50095586889,-7.05857921512,0.555650264374,-3.64658905191
0.976724872966,-7.07520348838,-0.240356161876,-2.9905817673
0.562493877042,-6.40182776163,-2.55636258812,-6.2745744827
4.53826288111,-4.18845203489,-2.16236901437,-4.70856719809
1.03403188519,-7.75507630815,-1.86837544062,-6.56255991348
6.11980088926,-4.9417005814,-1.56438186687,-4.67655262887
0.355569893338,-11.2383248547,-3.83038829312,-7.80054534426
-1.97866110259,-6.69494912791,-2.52639471937,-8.67453805965
-3.92289209852,-3.83157340117,-2.62240114562,-3.66853077504
0.422876905559,-0.478197674423,-0.488407571873,-2.20252349043
-2.68135409037,-2.52482194768,0.745586001878,-1.44651620582
-3.34558508629,-1.85144622094,-0.110420424373,-1.98050892121
0.440183917781,-4.19807049419,-1.55642685062,-5.1945016366
-3.22404707814,-2.74469476745,-1.65243327687,-6.598494352
-5.06827807407,-4.9513190407,-1.39843970312,-6.93248706739
-6.05250907,-9.25794331396,-1.07444612937,-7.32647978278
-7.20674006592,-5.61456758721,-1.09045255562,-0.440472498169
-10.8909710618,-5.34119186047,-1.83645898187,-5.04446521356
-4.77520205777,-2.96781613373,-2.79246540812,-5.79845792895
-1.6894330537,-1.04444040698,1.60152816563,-0.922450644341
-3.96366404962,2.75893531976,3.26552173938,0.103556640268
-5.31789504555,-1.3776889535,-0.550484686868,-2.15043607512
-3.84212604148,-0.0343132267481,-0.286491113118,-1.76442879051
1.8436429626,4.10906249999,1.48750246063,-0.418421505904
0.689411966672,2.79243822674,1.72149603438,-0.372414221296
0.445180970746,0.76581395348,1.37548960813,2.67359306331
4.68094997482,5.90918968023,2.56948318188,10.3596003479
5.2167189789,7.32256540697,2.71347675563,8.59560763253
3.19248798297,7.47594113371,3.52747032938,4.56161491714
2.83825698704,4.72931686046,6.15146390313,7.03762220175
4.32402599112,5.2026925872,6.25545747688,6.59362948636
-1.24020500481,5.14606831394,5.83945105064,4.56963677097
2.78556399927,8.11944404069,4.95344462438,5.41564405558
9.21133300334,5.86281976744,2.55743819813,6.83165134019
6.44710200741,7.72619549418,1.29143177188,6.78765862479
9.60287101149,1.91957122092,0.585425345635,4.0636659094
2.71864001556,0.462946947664,2.35941891939,3.14967319401
4.94440901964,5.09632267441,1.83341249314,0.945680478622
4.72017802371,-0.0603015988454,-0.232593933115,-2.02831223677
-6.40405297221,1.9730741279,1.90139964064,-1.71230495216
-2.57828396814,6.73644985464,2.93539321439,0.66370233245
-1.45251496406,1.97982558139,1.46938678814,-0.0702903829415
-2.31674595999,-0.166798691869,1.03338036189,0.0457169016681
-0.970976955916,-2.01342296513,-0.852626064363,-1.91827581372
-1.09520795184,-4.00004723838,-3.22863249061,-4.09226852911
-2.62943894777,-3.05667151164,-4.94463891686,0.493738755495
3.3363300563,0.206704215107,-2.79064534311,5.1497460401
3.72209906038,0.230079941848,-0.896651769363,2.69575332471
1.58786806445,3.3934556686,-1.18265819561,5.67176060932
0.293637068527,2.56683139534,0.511335378138,4.08776789393
4.4794060726,2.77020712208,0.495328951889,2.70377517854
1.89517507668,4.24358284883,-0.0706774743612,5.29978246315
-1.49905591925,1.54695857557,-0.57668390061,3.08578974776
-3.52328691517,1.37033430232,-1.64269032686,-0.218202967632
-6.6775179111,1.64371002906,-0.26869675311,0.967804316977
-2.01174890703,2.3370857558,0.705296820641,4.50381160159
2.75402009705,1.23046148255,0.739290394391,3.20981888619
2.90978910112,-0.0161627907073,-1.17671603186,3.2858261708
-2.42444189481,2.21721293603,-1.45272245811,2.95183345541
0.911327109272,1.84058866278,-0.168728884359,1.67784074002
5.34709611334,2.06396438952,0.0852646893927,5.08384802463
6.37286511742,1.97734011627,-0.330741736858,6.84985530924
3.71863412149,2.70071584301,0.263251836892,9.22586259385
4.39440312557,3.84409156976,0.00724541064301,6.83186987846
7.49017212964,2.4374672965,-2.72876101561,6.67787716307
5.48594113372,-0.929156976756,-2.58476744186,7.01388444768
13.1772311047,13.1659302326,5.06719476744,5.67098473837
5.63210738648,10.5165897958,1.99492718252,3.92391952595
7.4669836683,7.4172493591,1.8426595976,6.27685431354
5.64185995011,5.30790892236,1.92039201268,4.38978910112
6.93673623192,5.98856848563,0.63812442776,3.24272388871
12.9816125137,11.9492280489,3.19585684284,7.52565867629
11.1264887956,7.03988761217,1.71358925792,6.95859346388
7.82136507738,6.47054717543,2.771321673,4.17152825146
5.97624135919,7.51120673869,4.38905408808,4.12446303905
6.65111764101,7.25186630197,4.37678650316,6.70739782663
8.88599392283,6.32252586523,2.75451891824,3.23033261422
4.11087020464,13.0431854285,1.32225133332,7.1732674018
0.545746486459,10.0538449918,1.5699837484,10.2762021894
7.74062276827,7.63450455503,0.667716163478,6.52913697697
7.65549905009,6.1051641183,0.0254485785554,5.78207176455
12.8503753319,3.94582368156,-1.16681900636,6.00500655214
8.38525161372,3.97648324483,-1.70908659129,4.04794133972
7.29012789554,0.677142808097,-3.3313541762,1.56087612731
10.6750041774,-2.97219762864,-3.77362176112,-1.24618908511
7.43988045917,-1.60153806537,-2.70588934605,2.18674570248
4.67475674099,-1.4508785021,-1.37815693096,2.57968049006
5.31963302281,0.839781061164,0.169575484115,1.49261527765
4.34450930462,0.0204406244338,0.247307899193,1.53555006523
1.35938558644,0.211100187698,0.145040314274,1.25848485282
-1.49573813174,0.961759750964,-1.15722727065,2.0714196404
-0.560861849928,4.43241931423,1.40050514443,1.66435442799
0.544014431889,0.693078877499,3.12823755951,-0.922710784429
2.5388907137,0.523738440766,1.50596997459,-0.549775996845
-2.35623300448,3.88439800403,2.95370238967,1.52315879074
-2.48135672266,1.5150575673,2.58143480475,-0.213906421674
0.873519559151,1.90571713056,2.47916721983,-1.90097163409
-2.38160415903,-3.49362330617,0.766899634911,0.131963153495
-4.52672787722,-2.83296374291,0.17463204999,1.19489794108
-5.1918515954,-4.73230417963,-0.187635534929,-4.56216727134
-0.426975313585,-2.72164461637,0.850096880151,-3.89923248375
0.337900968236,-0.6309850531,2.03782929523,-1.60629769617
-2.37722274995,-2.10032548984,1.87556171031,-4.77336290858
-1.57234646813,2.74033407343,1.75329412539,1.189571879
-0.287470186315,-0.269006363302,0.581026540469,0.822506666587
-5.7225939045,-2.50834680003,-1.45124104445,-2.96455854583
-4.19771762268,-2.23768723677,0.536491370629,-2.15162375824
-2.35284134087,1.4229723265,2.48422378571,0.481311029343
-3.24796505905,0.783631889764,-0.788043799213,-1.58575418307
-0.933088777234,-3.62570854697,-1.81031138413,-0.702819395488
0.58178750458,-1.2950489837,-0.362578969052,-0.869884607904
-7.7233362136,0.325610579566,-1.24484655397,-1.61694982032
-3.08845993179,-5.69372985716,-2.75711413889,-5.08401503273
-2.30358364997,-6.3130702939,-1.78938172381,-4.27108024515
-5.20870736815,-6.57241073063,-0.681649308734,-4.92814545757
-8.39383108633,-6.82175116737,1.00608310635,-3.30521066998
-8.14895480452,-5.4910916041,0.723815521425,-2.2822758824
-9.5540785227,-5.40043204083,-0.158452063495,-6.64934109481
-10.9092022409,-1.55977247757,-0.230719648414,-3.30640630723
-9.98432595907,-4.5691129143,-1.05298723334,-4.01347151964
-11.8594496773,-5.76845335103,-1.12525481825,-5.97053673206
-14.3545733954,-2.32779378777,1.18247759682,-2.66760194447
-11.6896971136,-3.9571342245,-0.369789988097,-6.03466715689
-9.2048208318,-0.526474661234,0.327942426984,-1.4317323693
-8.63994454999,-0.265815097966,0.145674842062,-2.55879758172
-10.3850682682,-7.0451555347,-1.74659274286,-7.75586279413
-7.25019198636,-4.64449597143,-2.85886032778,-5.46292800655
-6.28531570454,-8.07383640817,-4.3811279127,-4.77999321896
-4.09043942273,-8.0031768449,-6.11339549762,-5.72705843138
2.02443685909,-6.42251728163,-2.46566308254,-4.80412364379
-3.52068685909,-7.55185771837,-2.20793066746,-6.31118885621
-4.80581057727,-7.4911981551,-2.96019825238,-9.28825406863
-2.93093429546,-6.45053859183,-1.4924658373,-3.12531928104
-3.54605801364,-7.11987902856,-1.63473342222,-2.60238449346
-3.36118173182,-7.4592194653,-0.327001007141,-1.77944970587
-8.43630545001,-9.92855990203,-2.35926859206,-4.76651491829
-6.50142916819,-5.28790033876,-1.74153617698,-3.1035801307
-9.82655288638,-10.4872407755,-2.2038037619,-4.61064534312
-10.0516766046,-8.17658121224,-1.07607134682,-3.09771055553
-10.9668003227,-6.55592164896,-0.728338931742,-2.59477576795
-10.9819240409,-8.8452620857,-0.0706065166614,-2.91184098036
-12.3770477591,-6.97460252243,0.147125898418,-1.51890619278
-12.1121714773,-5.40394295916,0.114858313496,-3.35597140519
-8.92729519548,-3.5132833959,-0.997409271422,-5.55303661761
-8.59241891366,-6.34262383263,-2.27967685634,-5.37010183002
-6.97754263184,-11.6919642694,-2.31194444126,-7.13716704244
-3.19266635003,-10.6113047061,-2.90421202618,-11.5942322549
-6.15779006821,-5.41064514283,-2.31647961111,-5.32129746727
-9.4629137864,-4.75998557957,-4.20874719602,-4.28836267968
-9.12803750458,-6.7293260163,-4.37101478094,-5.7654278921
-4.76316122276,-8.66866645303,-6.44328236587,-6.49249310452
-5.22828494095,-10.3280068898,-5.64554995078,-8.66955831693
-8.08340865913,-1.0673473265,-3.51781753571,-2.13662352935
-0.968532377316,-2.64668776323,-3.91008512063,-5.40368874176
-1.2136560955,-10.2260282,-4.63235270555,-7.49075395418
-6.74877981368,-3.0253686367,-2.09462029047,-2.13781916659
-0.173903531868,-1.91470907343,-1.43688787539,0.0651156209933
0.88097274995,2.40595048984,-2.00915546031,-0.101949591422
1.02584903177,-2.1833899469,-3.58142304523,1.79098519616
2.70072531359,-4.74273038363,-4.67369063015,2.25391998375
4.9456015954,-3.95207082036,-3.76595821507,0.916854771332
4.37047787722,-5.6414112571,-3.32822579999,-0.0502104410834
-0.0946458409671,-6.34075169383,-2.38049338491,-4.5072756535
0.51023044085,-0.270092130562,0.66723903017,-0.694340865914
5.12510672267,-1.0194325673,-0.305028554749,2.46859392167
2.50998300448,-7.35877300403,-1.47729613967,-2.69847129074
2.3148592863,-5.06811344076,-0.129563724589,-2.88553650316
6.55973556811,3.3025461225,0.88816869049,1.36739828442
4.51461184993,1.57320568577,-0.284098894432,2.25033307201
1.33948813175,2.38386524903,0.403633520649,4.19326785959
0.794364413563,2.71452481231,1.06136593573,2.25620264718
-2.67075930462,6.50518437557,2.11909835081,4.92913743476
0.154116977199,6.82584393883,2.64683076589,7.13207222235
6.92899325901,6.8165035021,4.06456318097,6.61500700993
6.64386954083,6.89716306537,3.33229559605,4.60794179752
7.94874582265,-1.01217737137,1.47002801113,1.1208765851
13.5336221045,2.79848219191,2.52776042621,2.11381137269
11.3284983863,7.21914175517,3.97549284129,4.18674616027
9.90337466809,11.1798013184,4.45322525637,7.63968094786
4.81825094991,4.8504608817,4.57095767145,4.18261573544
6.38312723173,10.581120445,3.59869008653,5.27555052303
6.13800351354,9.29178000824,1.10642250161,5.14848531061
9.18287979536,8.2824395715,2.01415491669,6.4614200982
9.05775607717,11.3530991348,3.36188733177,8.21435488578
7.43263235899,8.25375869804,3.86961974684,5.79728967336
7.61750864081,9.1444182613,3.31735216192,6.88022446095
6.45238492262,5.15507782457,2.595084577,6.26315924853
6.19726120444,6.90573738784,2.47281699208,4.37609403612
1.23213748626,4.2763969511,0.650549407164,0.909028823704
5.77701376807,5.58705651437,0.928281822242,1.70196361129
2.63189004989,7.83771607764,2.70601423732,3.14489839887
4.46676633171,7.9583756409,2.8937466524,3.30783318646
7.98164261352,12.6590352042,2.66147906748,6.05076797404
9.99651889534,16.7896947674,4.67921148256,8.61370276163
4.02860828489,-5.26288880813,-2.60128997093,-5.77550872093
-2.50522683574,-0.327226927293,-1.39799701863,-2.36901202848
-2.47906195636,-2.56156504646,-0.584704066336,-2.46251533602
4.66710292301,-4.25590316562,-0.551411114038,-4.80601864357
0.863267802382,-1.55024128479,-0.47811816174,-8.02952195111
1.92943268175,-1.66457940394,-0.524825209442,-2.68302525866
5.16559756112,-1.54891752311,-1.79153225714,0.3334714338
3.9317624405,1.73674435773,-1.17823930485,2.89996812626
8.90792731987,1.58240623856,-0.804946352548,3.74646481871
2.87409219924,-1.3719318806,-2.02165340025,-1.32703848883
5.39025707861,-5.99626999976,-2.47836044795,-5.37054179638
7.62642195798,-2.56060811893,-1.50506749565,-1.09404510392
6.54258683736,-2.62494623809,-0.651774543356,-4.38754841147
2.24875171672,0.350715642748,-2.51848159106,-3.65105171901
2.4449165961,2.02637752358,-1.07518863876,-1.85455502655
-2.62891852453,0.0120394044206,-0.191895686461,0.371941665901
-1.07275364516,-0.112298714743,-1.47860273416,0.598438358357
0.353411234217,1.94336316609,0.0346902181354,0.134935050813
-0.450423886414,8.57902504693,1.20798317043,4.51143174327
1.59574099296,7.01468692777,0.171276122732,4.17792843572
4.36190587233,3.8403488086,0.204569075031,4.71442512818
4.7180707517,1.26601068944,-2.58213797267,6.84092182063
1.43423563107,0.821672570277,-2.63884502037,3.36741851309
-0.119599489557,1.31733445112,-1.41555206807,2.56391520555
0.726565389818,-1.52700366805,-1.69225911578,3.570411898
-2.06726973081,-2.66134178721,-1.85896616348,2.74690859046
-2.05110485144,-3.44567990638,-1.85567321118,1.09340528291
-3.24493997207,-3.67001802554,-1.77238025888,0.0899019753688
0.531224907303,-7.2443561447,-2.04908730658,-3.96360133218
0.927389786677,-3.70869426387,-3.62579435429,-4.15710463972
1.66355466605,-6.21303238303,-3.30250140199,-4.05060794726
12.7197195454,0.422629497807,-1.11920844969,1.85588874519
-4.67411557521,-2.48170862136,-1.73591549739,-0.827614562353
-6.97795069584,-5.60604674052,-2.21262254509,-4.7011178699
-0.611785816465,1.04961514032,-1.5393295928,2.20537882256
-3.5056209371,2.07527702115,0.713963359502,2.39187551501
-6.00945605772,1.79093890199,2.0672563118,-2.77162779253
-1.43329117835,0.806600782831,1.8105492641,0.354868899924
1.20287370102,0.382262663665,1.0338422164,1.07136559238
-0.970961419607,-1.1320754555,0.797135168696,-0.692137715164
0.435203459765,0.633586425338,1.19042812099,1.74435897729
-1.17863166086,-2.70075169382,-0.786278926709,0.110855669747
1.67753321851,2.03491018701,0.16701402559,1.2973523622
1.40369809788,2.11057206785,0.830306977887,-2.92615094534
-0.660137022747,-4.53376605132,0.273599930186,-3.10965425289
5.12602785662,-4.90810417048,0.196892882484,-2.66315756043
3.272192736,-4.10244228964,0.570185834782,-2.99666086798
-0.00164238463185,1.48321959119,2.57347878708,-2.04016417552
-2.28547750526,1.09888147203,2.37677173938,-2.75366748306
-7.51931262589,-0.305456647133,1.99006469168,-1.76717079061
-4.70314774652,-3.07979476629,0.553357643974,-2.73067409815
2.86301713286,0.74586711454,0.626650596272,-0.134177405696
4.17918201223,2.69152899538,2.39994354857,2.59231928676
3.6653468916,8.65719087622,5.27323650087,8.75881597921
1.24151177097,11.3428527571,4.99652945317,10.0153126717
2.24767665034,2.71851463789,4.33982240547,7.78180936413
6.19384152972,5.62417651873,4.79311535776,6.90830605658
-3.30999359091,-1.89016160044,0.336408310061,2.99480274904
-11.0038287115,-1.9344997196,0.689701262359,0.201299441493
-8.20766383217,-1.30883783876,1.52299421466,-2.61220386605
-7.1214989528,-2.35317595793,2.11628716695,-0.385707173596
-11.9553340734,-2.53751407709,1.58958011925,-0.199210481141
-14.8191691941,-6.67185219626,0.662873071551,-6.26271378868
-10.8430043147,-6.15619031542,-0.73383397615,-5.98621709623
-7.02683943531,2.04947156542,-1.03054102385,-0.359720403773
-11.1906745559,-2.80486655375,0.0327519284456,-2.66322371132
-13.2245096766,0.620795327093,3.12604488074,-2.77672701886
-12.1783447972,-1.90354279207,1.63933783304,-3.67023032641
-7.35217991783,-1.59788091123,0.282630785341,-2.30373363395
-2.71601503845,0.667780969601,2.04592373764,-0.667236941495
-2.28985015908,4.06344285044,1.93921668994,1.04925975096
-6.14368527971,-0.0508952687233,-0.487490357764,-3.08424355658
-6.81752040034,1.15476661211,-0.674197405468,-2.18774686413
0.0186444790343,5.29042849295,1.23909554683,0.488749828327
-2.89519064159,6.87609037379,3.24238849913,2.16524652078
1.77097423778,0.441752254621,1.55568145143,-0.428256786761
-1.96286088285,4.57741413546,2.72897440372,2.03823990569
-1.44669600348,8.9130760163,3.23226735602,7.10473659815
5.15946887589,5.08873789713,2.86556030832,4.87123329061
0.975633755264,7.61439977797,2.28885326062,3.66772998306
-2.19820136537,8.9800616588,2.79214621292,5.70422667552
1.54796351401,4.39572353964,1.24543916522,5.03072336797
0.784128393378,4.71138542048,3.14873211751,3.64722006043
0.69029327275,3.68704730132,3.21202506981,4.47371675288
5.26645815212,4.87270918215,1.96531802211,4.67021344534
6.3826230315,-0.251628937011,0.818610974409,2.01671013779
3.53878791087,-6.05596705617,-0.558096073291,0.60320683025
-3.19504720976,-4.90030517534,0.345196879005,-0.940296477293
-1.38888233039,-2.1046432945,0.988489831303,-2.23379978484
-4.65271745102,-1.11898141366,1.0017827836,-2.74730309238
1.57344742835,0.0266804671737,0.8950757359,1.44919360007
-1.15038769227,0.832342348007,1.5783686882,1.34569029253
-1.2942228129,-0.331995771154,0.921661640496,3.15218698498
0.801942066468,0.893666109681,0.284954592795,3.03868367744
6.49810694584,7.44932799052,2.66824754509,6.6851803699
1.37427182521,4.62498987136,2.68154049739,3.51167706235
3.61043670458,1.97065175219,0.34483344969,-0.311826245193
3.28660158395,1.38631363303,1.53812640199,0.224670447263
-2.83723353667,5.37197551387,1.62141935428,0.891167139718
-2.4610686573,5.8576373947,2.74471230658,2.21766383217
0.34509622207,0.493299275538,0.458005258881,2.23416052463
0.971261101444,1.38896115638,-0.738701788821,4.22065721708
6.61742598081,3.24462303722,-0.595408836522,2.63715390954
4.44359086019,4.88028491805,0.887884115775,4.423650602
3.76975573956,10.0659467989,1.44117706807,9.08014729445
5.57592061893,13.5916086797,3.24447002037,9.00664398691
2.1120854983,1.12727056056,0.567762972671,0.363140679363
-1.07174962233,-0.777067558603,0.581055924968,-1.03036262818
4.06441525705,1.83859432223,0.254348877266,0.516134064274
-0.589419863583,-4.97574379693,-2.77235817044,-4.66736924327
7.38674501579,-5.09008191609,-3.35906521814,-4.18087255081
-0.487090104838,-5.55442003526,-3.77577226584,-3.01437585836
1.49907477453,-4.61875815442,-4.28247931354,-3.0178791659
7.35523965391,-5.87309627358,-6.38918636124,-5.47138247345
1.40140453327,-6.09743439274,-5.84589340894,-7.39488578099
-1.01243058735,-6.85177251191,-4.64260045665,-9.20838908854
1.03373429202,-6.55611063107,-2.41930750435,-5.61189239608
5.78989917139,-10.1104487502,-3.77601455205,-7.23539570363
3.66606405077,-4.2547868694,-4.32272159975,-1.82889901117
8.84222893013,3.68087501144,-1.75942864745,0.137597681286
-0.661606190493,-6.80346310772,-4.61613569516,-5.67590562626
-0.525441311122,-3.00780122689,-3.10284274286,-3.0194089338
-0.669276431749,-3.29213934605,-1.90954979056,-2.65291224135
-3.31311155238,1.02352253478,0.763743161739,-1.62641554889
3.95305332699,-1.66081558438,-0.632963885962,-1.66991885644
2.04921820636,-5.84515370354,-2.09967093367,-1.45342216398
-3.74461691426,-2.59949182271,-0.0263779813686,0.673074528475
-2.40845203489,-4.81382994187,-0.753085029068,-0.710428779069
3.99387227905,13.73193155,1.42087332808,13.4269512195
0.812028177981,5.97089228826,0.242202473846,8.24407037185
-0.269815923086,1.15985302655,-1.08646838039,3.52118952419
