-7.72620639533,-16.6259193314,-5.39515988373,-17.8103633721
-7.3893468458,-12.4892156313,-5.46141597808,-16.3362680828
-5.52248729626,-8.81251193119,-3.13767207243,-13.6621727934
-9.48562774673,-11.6258082311,0.39607183322,-13.8280775041
-10.3587681972,-11.079104531,-1.75018426113,-14.2339822148
-6.09190864766,-7.58240083088,-0.786440355481,-9.91988692547
-2.68504909813,-3.54569713079,-0.782696449834,-5.63579163614
-0.448189548595,0.901006569322,1.63104745582,-6.69169634682
-2.06132999907,3.05771026942,1.63479136146,-4.36760105749
-5.85447044954,-0.355586030484,2.63853526711,-7.66350576817
-4.8976109,-5.55888233038,2.28227917276,-9.89941047885
-0.340751350472,-2.51217863028,0.746023078413,-6.93531518952
-1.24389180094,-1.47547493019,0.189766984062,-8.4312199002
-2.8970322514,-7.38877123008,2.20351088971,-8.59712461087
-0.360172701869,-7.72206752998,1.01725479536,-7.81302932155
-5.25331315234,-9.09536382988,-1.23900129899,-10.9789340322
-3.3164536028,-3.29866012977,3.63474260666,-9.3948387429
-8.14959405327,-1.12195642968,2.18848651231,-9.24074345358
-7.44273450374,-6.68525272958,-1.65776958205,-9.75664816425
-7.8758749542,-8.26854902948,0.135974323606,-3.41255287493
-9.72901540467,-13.6918453294,0.679718229254,-8.5184575856
-8.53215585514,-11.5151416293,-2.4565378651,-13.8643622963
-3.88529630561,-2.24843792917,-2.20279395945,-7.34026700696
-0.358436756069,0.258265770928,-4.12905005379,-1.42617171763
0.258422793457,-10.685030529,-6.69530614815,-3.17207642831
1.57528234299,-6.15832682887,-8.0315622425,-4.26798113898
-6.78785810748,-2.80162312878,-6.82781833685,-2.04388584966
2.34900144206,-1.09491942867,-1.9740744312,-1.14979056033
-3.0941390084,-3.20821572857,-5.72033052555,-3.23569527101
-1.59727945887,-6.18151202847,-4.1365866199,-2.32159998169
-1.81041990934,1.24519167162,0.647157285748,5.16249530764
-0.803560359811,0.701895371734,-1.3590988086,4.68659059696
2.20329918973,0.47859907183,-1.80535490295,2.56068588629
-2.06984126075,-3.28469722807,-3.3416109973,-0.245218824388
-1.89298171121,-1.60799352796,-2.49786709166,0.978876464937
-1.85612216168,1.59871017213,-3.944123186,-0.51702824574
4.62073738786,1.71541387223,-3.45037928036,-1.35293295642
8.54759693739,8.79211757234,-1.72663537471,4.63116233291
2.37445648692,3.58882127243,-0.942891469058,3.98525762223
-0.538683963547,2.43552497253,-0.449147563409,5.42935291156
3.27817558598,-0.507771327364,-1.38540365776,2.38344820088
10.1350351355,11.4989323727,3.86834024789,6.89754349021
7.51189468505,14.0956360728,5.57208415354,13.2116387795
17.2087542346,9.01233977294,2.68582805919,18.3757340689
9.53561378412,2.15904347304,4.09957196483,13.5398293582
10.8124733337,6.09574717314,2.26331587049,6.5839246475
6.19933288318,12.1224508732,-1.95294022387,9.01801993683
5.31619243271,16.2791545733,-0.0991963182132,12.1421152262
6.97305198225,13.2558582734,0.354547587434,12.2962105155
3.31991153178,7.55256197354,-0.741708506917,7.7703058048
5.07677108132,7.98926567364,-1.81796460127,9.24440109412
3.15363063085,13.8959693737,0.805779304384,15.6084963834
6.18049018038,15.5826730738,0.199523210031,14.5725916728
2.02734972991,7.11937677395,-3.90673288432,9.9666869621
1.92420927945,8.46608047404,1.38701102133,12.4907822514
5.54106882898,3.13278417414,2.33075492698,7.07487754074
6.96792837851,8.23948787424,0.474498832627,9.36897283007
7.14478792805,7.86619157434,1.66824273828,8.11306811939
8.09164747757,6.43289527445,1.26198664393,6.92716340872
0.628507027111,6.55959897455,2.18573054958,7.97125869804
1.44536657664,5.28630267464,1.82947445523,11.4553539874
2.80222612618,8.33300637475,0.953218360875,12.3894492767
3.42908567571,10.7997100748,3.46696226652,7.15354456602
4.49594522524,0.396413774943,1.01070617217,2.02763985534
7.44280477478,-3.41688252495,-0.895549922177,1.60173514466
8.20966432431,6.05982117515,2.25819398347,7.62583043399
12.9065238738,9.71652487525,1.57193788912,9.76992572331
4.20338342337,9.79322857535,2.86568179477,10.1040210126
9.76024297291,4.11993227545,5.10942570042,7.25811630196
-0.832897477565,-1.23336402445,3.27316960607,2.31221159128
0.653962071978,0.373339675651,3.52691351172,2.99630688061
1.9208216215,3.81004337575,2.74065741737,5.83040216993
4.84768117104,2.46674707585,3.77440132301,9.00449745926
1.10454072057,-0.966549224053,3.72814522867,5.66859274858
-0.308599729899,-2.53984552395,3.91188913431,3.69268803791
3.41825981963,3.63685817616,3.57563303996,7.35678332723
4.55511936916,8.69356187625,3.15937694561,8.16087861655
4.46197891871,5.66026557636,3.18312085126,9.44497390588
4.62883846823,4.85696927646,4.54686475691,12.0790691952
5.47569801777,-0.426327023444,5.73060866256,4.92316448453
1.4525575673,5.68037667666,5.24435256821,6.95725977385
3.92941711684,8.41708037676,3.99809647386,10.0813550632
-0.173723333632,6.20378407685,4.55184037951,7.9954503525
0.243136215904,4.92048777696,4.50558428516,10.4995456418
-5.57000423456,-0.972808522944,1.44932819081,5.90364093115
2.42685531496,5.07389517716,4.13307209646,8.78773622047
-3.4762851355,12.5205988773,7.4668160021,9.7418315098
-3.72942558597,9.17730257736,3.96055990775,7.14592679912
1.26743396356,0.974006277458,1.0543038134,6.45002208845
3.47429351309,-0.509290022434,0.838047719055,6.93411737777
0.521153062633,4.09741367766,3.8317916247,7.15821266709
2.05801261216,6.16411737776,3.54553553035,8.31230795642
2.4748721617,3.02082107787,0.219279436002,4.66640324574
-4.78826828877,-3.25247522203,1.55302334165,-2.91950146493
-6.18140873924,-14.8257715219,-1.2532327527,-9.04540617561
-0.554549189706,-9.11906782183,-1.38948884705,-5.50131088628
-2.34768964018,-7.01236412174,-2.3957449414,-6.64721559696
-2.58083009064,-1.14566042164,-0.382001035752,-2.06312030764
-0.353970541109,0.761043278471,-1.69825713011,1.46097498169
2.21288900843,2.73774697856,0.115486775547,3.48507027101
3.45974855796,3.05445067867,4.20923068119,1.91916556034
0.846608107495,5.65115437877,0.0329745868439,2.40326084966
-2.76653234298,7.93785807887,0.456718492493,2.71735613898
-1.37967279345,1.51456177897,3.52046239814,-2.18854857169
-5.01281324391,-5.67873452093,-0.185793696208,-8.24445328237
-8.30595369438,-3.50203082083,-0.472049790558,-7.67035799304
-0.0090941448434,0.234672879269,-1.25830588491,-5.34626270372
3.93776540468,-2.16862342063,-1.16456197926,-4.79216741439
-3.44537504578,-1.94191972053,-0.450818073612,-2.69807212507
-1.81851549625,-8.29521602043,-0.95707416796,-5.56397683575
1.63834405329,-4.60851232032,0.406669737687,-3.88988154642
2.26520360282,-1.69180862023,-0.949586356663,-4.4557862571
0.672063152349,-1.23510492013,-2.29584245101,-4.26169096777
0.128922701886,-6.57840122002,-4.46209854537,-6.11759567845
-0.904217748583,-9.47169751993,-4.94835463972,-5.79350038912
-1.66735819905,-3.87499381982,-0.274610734064,-1.8794050998
-3.98049864951,-2.94829011972,-0.140866828417,-5.21530981048
-4.70363909998,-9.20158641962,-1.67712292277,-11.1712145212
-3.69677955045,-11.5448827195,-5.70337901712,-12.0871192318
-4.05992000092,-11.9181790194,-3.79963511147,-11.0430239425
-5.72306045138,-9.34147531932,-3.34589120582,-12.2389286532
-2.66620090185,-2.02477161922,-3.95214730017,-8.08483336385
-2.64934135232,0.781932080885,-2.98840339452,-8.20073807453
-6.27248180279,-8.40136421902,-3.63465948887,-11.2866427852
-6.03562225325,-10.7646605189,-5.71091558323,-16.5225474959
-6.25876270372,-8.85795681881,-3.54717167758,-19.3884522066
-9.44190315418,-8.51125311872,-5.48342777193,-18.2743569172
-13.6750436047,-8.84454941862,-7.26968386628,-17.8102616279
-12.2716388081,-6.06720203488,4.12320130813,-12.4803742733
-9.90401580524,-9.11133689457,1.25015753753,-12.0039387532
-5.70639280236,-1.28547175425,2.32711376693,-9.10750323315
-6.68876979948,3.70039338606,3.71406999633,-6.0010677131
-2.78114679659,5.61625852637,4.00102622572,-5.48463219305
-2.5235237937,-2.47787633331,3.57798245513,-5.678196673
-7.50590079082,-4.022011193,3.94493868453,-4.64176115295
-6.76827778794,-0.986146052688,2.71189491393,-5.37532563289
-3.62065478505,2.85971908763,2.60885114333,-3.13889011284
-1.12303178217,7.12558422794,1.26580737273,-0.242454592793
-5.23540877928,-3.95855063175,-3.30723639788,-7.01601907274
-5.1977857764,-5.48268549144,-4.62028016848,-7.40958355269
-1.78016277352,1.08317964889,2.23667606093,-3.85314803264
-1.74253977063,1.34904478919,1.79363229032,-6.83671251259
2.68508323225,4.7649099295,1.17058851972,-1.20027699254
3.62270623514,1.80077506982,1.10754474912,-0.683841472486
-2.97967076198,-1.40335978987,1.64450097852,-1.99740595243
-4.3820477591,1.81250535045,1.98145720792,-0.000970432382019
-0.0544247562138,4.80837049075,3.17841343732,-1.74453491233
1.33319824666,6.90423563107,4.02536966672,4.03190060772
-0.0391787504486,1.32010077139,2.64232589612,0.528336127771
-5.78155574757,-4.3840340883,1.20928212552,-2.44522835218
-1.94393274468,-1.27816894799,1.46623835491,1.47120716787
2.5536902582,4.35769619232,-0.636805415681,3.13764268793
6.52131326109,6.25356133264,2.14015081372,4.37407820798
0.798936263971,1.48942647294,1.42710704312,3.97051372803
-0.193440733143,-1.30470838674,1.16406327252,5.71694924808
1.14418226974,-2.06884324642,-1.44898049808,5.83338476813
-0.998194727377,2.10702189388,-0.242024268686,4.16982028818
-0.840571724497,-1.0671129658,-1.22506803929,-1.10374419177
3.7370512784,-0.711247825486,0.501888190116,1.83269132828
1.13467428127,-6.92538268517,-0.101155580487,-1.09087315166
-1.92770271584,-4.42951754486,-0.254199351089,-0.724437631616
2.15992028704,5.87634759545,-1.18724312169,6.49199788844
4.38754328992,6.77221273576,-4.89028689229,9.11843340849
4.67516629281,-1.15192212392,-2.81333066289,4.91486892854
7.74278929569,1.20394301639,1.14362556651,7.02130444859
1.86041229858,1.6398081567,-0.369418204089,3.76773996864
1.78803530146,1.19567329702,-1.42246197469,1.78417548869
-0.044341695655,-0.998461562667,-0.965505745291,1.65061100874
-7.17671869278,-7.05259642236,-2.34854951589,-5.18295347121
-3.80909568989,-7.39673128205,-2.06159328649,-2.96651795115
-0.751472687007,-8.33086614173,-5.25463705709,0.399917568897
1.68615031588,-6.99500100141,-4.68768082769,-1.16364691105
3.62377331877,-5.98913586111,-3.59072459829,-1.667211391
0.83139632165,-7.02327072079,-1.40376836889,-1.11077587095
-1.92098067547,-8.91740558048,-2.2468121395,-3.6743403509
-2.04335767258,-4.59154044017,-3.6998559101,-1.20790483085
3.7242653303,-5.03567529985,-4.58289968069,-0.171469310795
2.16188833319,-0.00981015954312,0.494056548705,1.14496620925
1.58951133607,-2.40394501922,0.511012778104,2.96140172931
11.7371343389,-4.56807987892,-1.2920309925,5.04783724936
14.1947573418,2.86778526141,3.7649252369,11.9642727694
10.6623803447,4.63365040171,1.9118814663,10.3307082895
5.4900033476,0.449515542023,-4.9911623043,5.57714380951
-1.59237364952,3.10538068234,-1.7942060749,5.20357932956
3.18524935337,8.45124582265,0.422750154503,11.2000148496
13.6428723562,8.75711096296,-3.2702936161,11.4464503697
14.8004953591,11.5529761033,-3.8033373867,10.9628858897
12.498118362,9.2688412436,-2.8763811573,9.39932140977
6.54574136491,8.9147063839,-1.5394249279,11.4657569298
3.62336436779,2.09057152421,-5.6024686985,8.99219244987
8.53098737068,5.01643666453,-4.0155124691,10.8086279699
-1.35138962644,8.82230180484,1.1514437603,6.60506348997
2.29623337644,1.95816694516,-3.2916000103,1.16149901002
-1.35614362067,-1.78596791453,-3.48464378091,1.05793453008
-8.46852061779,-1.78010277422,-2.8176875515,1.70437005013
-5.90089761491,-3.54423763391,-4.94073132211,-3.06919442982
-0.943274612022,2.37162750641,-3.63377509271,0.0172410902287
-0.0456516091363,4.02749264672,-3.27681886331,0.513676610279
-3.64802860626,-2.43664221297,-3.2698626339,-1.17988786967
-1.37040560337,-8.94077707265,-2.95290640451,-4.48345234962
7.20721739951,-0.584911932339,-0.585950175107,-0.187016829565
7.7648404024,7.64095320798,0.111006054292,4.26941869048
9.32246340527,7.67681834829,-1.00203771631,5.68585421054
6.51008640817,0.612683488594,-1.29508148691,1.66228973059
-0.332290588951,-1.84145137109,-0.838125257509,-2.78127474936
5.96533241394,3.02441376922,-2.00116902811,-0.354839229311
3.50295541681,-1.84972109046,-5.84421279871,-1.71840370926
-1.0394215803,3.00614404985,1.94274343069,4.65803181079
0.278201422581,1.92200919017,5.04969966009,1.06446733084
2.37582442547,-6.77212566952,1.69665588949,-3.30909714911
0.653447428347,-1.65626052921,0.693612118888,0.497338370946
0.0710704312369,2.9096046111,1.99056834829,1.393773891
7.25869343412,3.10546975141,1.14752457769,1.42020941105
2.83631643701,0.221334891728,1.37448080709,-3.5333550689
-1.50606056011,-4.72279996796,2.27143703648,-2.45691954885
-4.65843755723,-2.55693482764,2.44839326589,-2.0504840288
-2.14081455435,1.21893031267,2.85534949529,-1.48404850875
-3.88319155147,2.17479545298,3.86230572468,-0.337612988695
-7.10556854858,-5.7393394067,1.22926195408,-3.87117746865
-8.5879455457,-5.7334742664,0.00621818348372,-4.86474194859
-6.31032254281,-0.957609126075,2.46317441288,-3.45830642854
1.71730046007,2.16825601423,3.01013064228,-1.12187090849
-2.84507653704,4.76412115455,3.02708687168,-1.65543538844
-0.77745353416,-3.76001370514,0.504043101082,-4.82899986839
-0.399830531271,-5.07414856483,1.38099933048,-6.16256434834
-1.11220752839,-0.828283424511,1.29795555988,-2.19612882829
-0.374584525503,4.7075817158,2.30491178928,0.820306691765
2.72303847738,2.56344685611,0.831868018679,-3.75325778818
-0.649338519739,-2.58068800357,0.968824248077,-4.19682226813
-0.481715516857,-2.47482286326,1.30578047748,-1.73038674808
-5.57409251397,-0.298957722953,2.85273670688,-1.63395122803
2.80353048891,0.47690741736,0.729692936278,-0.247515707979
4.09115349179,-0.467227442321,-1.38335083432,-0.571080187929
2.88877649468,-4.44136230202,-2.16639460492,-2.20464466788
2.41639949756,-5.3854971617,-0.509438375524,-4.07820914782
-1.79597749955,-1.53963202138,-0.102482146125,-3.80177362777
-6.95835449667,-2.30376688107,-0.725525916725,-6.14533810772
-5.42073149378,-0.20790174076,0.861430312674,-4.25890258767
-7.8831084909,-4.97203660045,0.818386542076,-3.02246706762
-8.66548548802,-4.16617146013,1.44534277147,-3.35603154757
-7.01786248513,-3.50030631982,-1.18770099913,-4.35959602752
-3.60023948225,5.1055588205,1.82925523027,-0.103160507466
-0.492616479365,0.371423960809,0.676211459671,-2.53672498742
-4.45499347648,-2.34271089888,1.10316768907,-1.88028946736
-6.9573704736,0.0231542414331,2.56012391847,-0.0438539473125
-0.729747470708,-7.62098061826,-0.972919852127,-6.53741842726
-3.34212446783,-2.65511547794,-2.44596362273,-4.86098290721
0.83549853506,1.52074966237,0.670992606669,0.24545261284
-1.51687846206,-1.25338519731,1.67794883607,-1.22811186711
-4.96925545918,-1.637520057,0.314905065468,-1.02167634706
1.6483675437,2.22834508331,1.12186129487,0.884759172995
3.68599054659,8.60421022362,1.65881752427,3.61119469305
3.97361354947,6.10007536393,2.33577375367,5.0976302131
0.771236552355,3.45594050425,-0.407270016934,-0.125934266853
-4.30114044476,-1.50819435544,-1.66031378754,-1.3794987468
0.0264825581253,5.41767078487,2.29664244187,6.49693677325
-2.17164705881,-0.00213445375994,-0.460151260519,-5.03416806722
-2.2256470588,-2.55961650112,0.842371275769,-3.48346982429
-3.98964705881,-4.3170985485,-1.18510618794,-3.98277158136
-3.0136470588,-7.67458059586,-2.33258365166,-6.19207333842
-0.957647058807,-1.67206264322,0.549938884637,-4.26137509549
-0.191647058804,1.51045530941,-1.24753857908,-1.30067685256
2.54435294119,1.90297326204,-0.925016042791,1.28002139038
0.180352941192,-0.92450878532,0.847506493497,0.17071963331
1.8163529412,-0.421990832685,-2.47997097022,3.04141787624
-1.09764705881,7.35052711995,5.35255156607,5.40211611918
3.39835294119,7.02304507258,4.80507410236,8.29281436211
2.06435294119,6.05556302522,4.02759663865,9.15351260504
1.49035294119,7.67808097786,4.24011917493,8.48421084798
0.38635294119,-3.95940106951,0.202641711221,2.48490909091
0.74235294119,-5.46688311687,-1.08483575249,-2.37439266616
-3.45164705881,-2.52436516424,-0.682313216203,-3.22369442322
1.00435294119,-1.1018472116,-1.26979067991,-1.53299618029
-4.20964705881,-6.49932925897,-3.96726814363,-5.59229793736
-3.20364705881,-9.68681130633,-3.56474560734,-7.17159969442
-0.50764705881,-4.6842933537,-3.28222307106,-2.18090145149
3.8083529412,2.43822459893,-2.15970053477,-0.450203208555
3.65435294119,7.95074255157,0.242822001521,4.08049503438
6.33035294119,4.3132605042,0.985344537807,5.76119327731
4.03635294119,2.31577845684,-0.302132925903,5.72189152024
7.50235294118,5.74829640947,0.400389610386,5.91258976318
3.79835294119,11.6608143621,1.10291214667,5.34328800611
1.63435294119,9.19333231475,-0.794565317039,4.81398624904
-4.51964705881,-0.694149732619,-3.26204278075,-2.15531550802
3.48635294119,-4.08163177998,-2.67952024447,-0.644617265089
1.35235294119,1.34088617265,3.52300229182,-2.71391902216
-4.10164705881,-0.276595874711,1.47552482811,-3.84322077922
-1.07564705881,-6.83407792207,-0.0619526356058,-5.13252253629
-5.44964705881,-8.23155996945,0.620569900682,-5.61182429336
-9.06364705881,-4.86904201681,2.52309243697,-3.06112605042
