-9.04996366278,-12.1700036337,6.63536337209,-17.1191170058
-11.665034363,-11.0635296592,3.22490243316,-17.6656023679
-10.8401050632,-6.02705568462,4.07444149422,-14.10208773
-5.74517576336,-9.03058171007,3.9739805553,-12.7685730921
-9.52024646355,-11.9741077355,3.34351961636,-10.7650584543
-2.93531716374,-3.37763376098,1.90305867743,-7.31154381637
-3.25038786393,2.68884021357,5.9225977385,-2.65802917849
-7.38545856412,-1.44468581188,5.38213679957,-6.1545145406
-10.0605292643,-15.3982118373,5.15167586064,-15.9809999027
-4.50559996451,-10.9717378628,5.63121492171,-13.0174852648
-4.08067066471,-13.0552638882,3.28075398278,-12.1139706269
2.7642586351,-7.76878991369,1.96029304385,-11.5804559891
-7.36081206509,-11.5223159392,-0.620167895082,-14.0369413512
-10.4558827653,-11.7158419646,-0.890628834011,-10.6934267133
-5.37095346548,-9.48936799006,-1.48108977294,-7.59991207539
-13.1160241657,-3.37289401551,1.50844928813,-10.1363974375
-13.0010948659,-9.51642004096,1.9279883492,-13.8128827996
-2.02616556605,-8.47994606641,-1.43247258973,-10.1293681617
-6.23123626624,-9.13347209187,-2.55293352867,-6.58585352385
-4.70630696644,-7.42699811732,4.83660553241,-0.612338885958
1.36862233337,-7.38052414277,4.64614459348,-0.618824248071
-15.3764483668,-4.90405016823,-1.03431634545,-9.16530961019
-8.24151906701,-3.19757619368,-5.46477728439,-7.5017949723
-11.4165897672,-7.68110221914,1.85476177668,-6.64828033441
-19.8516604674,-1.57462824458,1.49430083776,-5.78476569652
-2.34673116758,3.27184572996,-1.59616010118,2.35874894136
3.79819813222,3.43831970451,-2.42662104011,2.68226357925
1.69312743202,3.10479367905,-2.92708197904,4.99577821714
3.39805673183,2.2212676536,-4.87754291797,5.85929285502
8.91298603164,3.32774162814,-5.3080038569,7.57280749291
-3.00208466855,2.28421560269,-6.54846479583,2.7963221308
6.14284463126,8.33068957724,-5.16892573476,7.43983676868
-0.00222606893658,5.16716355179,-0.859386673688,3.96335140657
-2.46729676913,-2.08636247367,-3.45984761262,2.47686604446
-0.302367469325,0.0901115008746,-2.77030855155,6.87038068234
1.22256183049,6.44658547543,-2.11076949048,11.4338953202
4.50749113029,7.75305944997,-1.31123042942,11.2274099581
8.0124204301,2.27953342452,-4.24169136834,11.030924596
7.4773497299,-0.85399260094,-7.04215230727,7.22443923389
2.04227902972,-3.95751862639,-6.7626132462,5.48795387178
1.99720832952,5.77895534816,-5.47307418513,8.99146850966
7.25213762933,2.49542932271,-10.2835351241,10.6349831475
17.7270669291,5.04190329726,-2.333996063,11.0884977854
7.85199622895,9.1783772718,0.165542998075,13.1120124233
7.66692552875,4.42485124635,-0.304917940855,13.1955270612
6.82185482856,9.36132522089,1.51462112021,13.1090416991
8.17678412837,11.2377991954,-1.72583981872,15.922556337
9.30171342818,10.47427317,-3.34630075765,16.6260709749
7.15664272799,3.44074714454,-5.18676169658,11.6295856128
7.0815720278,2.17722111908,-4.76722263551,8.95310025064
14.6865013276,2.81369509362,-4.74768357444,11.8266148885
11.1714306274,9.97016906817,-6.09814451337,15.9701295264
6.94635992721,6.31664304272,-5.2586054523,11.3836441643
13.941289227,3.37311701727,-0.879066391233,12.0371588022
12.3062185268,7.46959099182,-0.279527330164,17.1506734401
12.2811478266,7.43606496636,-0.199988269091,14.384188078
10.0060771264,14.1125389409,-3.07044920802,14.3777027159
6.27100642625,15.7290129155,-2.02091014695,14.0112173537
9.64593572606,13.03548689,-3.12137108588,11.6547319916
8.95086502587,14.8719608645,-2.44183202482,12.5582466295
7.23579432568,16.2284348391,0.397707036256,14.2617612674
8.57072362549,19.6749088136,3.71724609732,16.8952759053
6.64565292529,19.3313827882,3.80678515839,17.7287905432
7.2905822251,16.3178567627,4.82632421946,16.7823051811
16.4555115249,7.83433073729,3.11586328053,12.9058198189
8.52044082472,18.6908047118,1.1654023416,14.1593344568
13.1053701245,20.9972786864,5.38494140267,12.1828490947
7.36029942433,16.8537526609,5.73448046374,11.9263637326
-2.09477127586,10.2602266355,6.93401952481,7.59987837049
0.430158023941,2.22670061002,4.11355858588,3.05339300838
-0.534912676245,6.35317458456,3.30309764695,4.38690764627
4.65001662356,11.7496485591,3.32263670802,3.50042228415
2.83494592337,7.10612253365,3.73217576909,-1.20606307796
4.46987522318,2.2625965082,1.14171483016,-0.432548440074
2.43480452298,-0.250929517249,-2.30874610877,-3.34903380219
-3.33026617721,1.3055444573,-1.2392070477,-3.5855191643
0.774663122596,3.72201843184,0.0503320133648,-4.64200452641
1.66959242241,0.978492406393,2.35987107443,-6.03848988853
-8.61547827778,-9.19503361906,2.33941013551,-12.1349752506
-3.78054897797,-10.7585596445,-0.151050803426,-14.0914606128
0.83438032183,0.877914330027,2.11848825765,-6.45794597487
-4.70069037836,2.09438830458,1.88802731871,-5.08443133698
-1.19576107855,1.61086227912,1.10756637978,-5.67091669909
-1.75083177874,-3.43266374633,0.677105440853,-8.18740206121
3.29409752107,-8.22618977178,1.87664450192,-9.69388742332
1.74902682087,-2.35971579724,-0.833816437007,-9.26037278543
-0.666043879326,0.016758177313,-0.714277375937,-8.33685814755
-1.02111457952,-1.57676784814,3.32526168513,-8.18334350966
-2.60618527971,-14.0702938736,-3.0451992538,-11.6598288718
2.4387440201,-9.02381989906,-1.86566019273,-9.88631423389
-5.91632668009,-6.7873459245,-0.0661211316619,-11.972799596
-0.471397380286,1.08912805004,-0.716582070592,-5.72928495811
-3.05646808048,-0.99439797541,0.642956990476,-6.65577032023
-4.71153878067,-3.06792400086,1.21249605155,-7.29225568234
6.48339051913,-9.40145002631,-1.47796488738,-7.36874104445
-7.08168018106,-2.89497605176,0.331574173684,-6.17522640657
4.11324911875,-0.598502077228,0.251113234757,-6.65171176868
0.918178418557,-3.18202810267,2.15065229583,-5.61819713079
-3.04689228164,-8.71555412813,-0.539808643105,-9.3346824929
1.17803701817,-9.01908015358,-2.13026958203,-8.68116785502
0.262966317983,0.687393820961,2.10926947903,-1.17765321713
6.31789561779,3.76386779551,1.06880854011,-0.704138579244
0.992824917601,-3.62965822995,-1.32165239883,-4.04062394136
-7.6722457826,-6.39318425539,1.25788666224,-6.62710930347
0.32268351721,-7.85671028084,0.767425723312,-5.42359466558
4.25761281702,0.489763693695,-2.17303521562,-1.5300800277
3.43254211683,4.49623766825,0.0365038454511,1.97343461019
-1.24252858336,2.23271164279,3.47604290652,0.546949248077
3.05240071645,-4.13081438266,2.14558196759,-2.51953611404
-0.0126699837492,-8.50434040812,3.32512102866,-3.69602147615
-5.75774068394,5.59213356643,6.56466008973,4.22749316174
-4.48281138414,2.26860754097,3.3541991508,0.981007799623
0.162117915672,-3.51491848448,1.76373821187,1.09452243751
-1.92295278452,-5.77844450993,-0.566722727064,3.0780370754
3.47197651529,-6.96197053538,0.382816334008,2.57155171328
-2.19309418491,-6.79549656083,1.94235539508,-1.55493364883
-4.9381648851,-3.22902258629,0.0418944561461,0.0685809890565
-8.22323558529,-5.37254861174,-3.29856648278,-1.70790437306
3.24169371452,-10.8360746372,-2.15902742172,-0.824389735169
0.136623014332,-9.79960066265,-3.46948836065,-2.76087509728
-6.99844768586,-2.8131266881,-2.61994929958,-1.2073604594
-6.48351838606,2.98334728645,1.0995897615,1.26615417849
-8.27858908625,1.15982126099,1.02912882256,-1.65033118362
-11.1136597864,-8.14370476446,-0.181332116368,-8.70681654573
-13.0387304866,-1.20723078992,6.1082069447,-0.443301907848
-14.6238011868,-5.65075681537,0.0977460057693,-2.41978726996
-11.008871887,-1.12428284082,-5.27271493316,-3.92627263208
-10.8039425872,-10.5278088663,-7.45317587209,-4.36275799419
5.85083212211,-12.384127907,-2.42175872094,5.77464389535
-2.7815345747,-6.90871103048,2.73978226285,1.01896667849
-3.1239012715,-3.963294154,4.81132324665,-3.51671053836
-4.96626796831,-10.2178772775,2.91286423044,-7.45238775522
-13.7786346651,-14.132460401,-0.445594785764,-12.9680649721
-6.52100136191,-15.3270435245,-2.10405380197,-10.2737421889
-16.4333680587,-9.62162664804,-1.54251281818,-6.49941940579
-5.95573475552,-12.7762097716,-3.36097183438,-6.64509662264
-8.92810145233,-10.3207928951,1.11056914941,-7.0907738395
-15.7804681491,-11.7453760186,0.482110133205,-11.3564510564
-17.7528348459,-14.9199591421,2.013651117,-12.6221282732
-10.9152015427,-12.9745422656,3.35519210079,-12.0178054901
-12.5575682396,-3.54912538912,2.03673308459,-4.72348270692
-7.52993493635,-0.0137085126335,2.58827406838,-2.07915992378
1.53769836685,-6.36829163614,-1.08018494783,-3.48483714063
-7.86466832996,-11.8028747597,-1.34864396403,-4.17051435749
4.18296497322,-9.87745788317,0.632897019765,-4.23619157435
-2.63940172358,-4.76204100668,4.03443800356,-2.5918687912
-0.301768420381,-0.176624130188,4.35597898735,-3.10754600806
-5.51413511718,4.5087927463,7.28751997115,2.35677677509
-4.80650181399,-10.0357903772,1.24906095494,-6.78890044177
-1.9988685108,-5.50037350073,0.0806019387383,-1.90457765862
1.0087647924,0.66504337576,3.16214292253,-0.0902548754802
3.41639809559,3.55046025225,1.14368390632,-0.0859320923355
1.40403139879,-3.09412287126,-2.29477510988,-2.61160930919
-8.88833529801,-9.57870599478,0.946765873912,-9.79728652605
-5.23070199482,-9.13328911829,2.09830685771,-8.3229637429
-5.12306869162,-4.9978722418,3.0098478415,-5.87864095976
-7.81543538842,-4.55245536532,0.101388825296,-8.91431817662
-9.40780208523,-6.96703848882,-1.10707019091,-8.14999539347
-1.88016878204,0.118378387662,1.10447079288,-2.55567261033
-0.232535478841,0.0737952641502,0.966011776676,-3.17134982718
-2.31490217565,0.829212140634,0.137552760472,-3.01702704404
9.61273112755,7.11462901712,-0.890906255732,2.0172957391
7.08036443075,5.32004589361,-2.18936527194,0.731618522248
4.25799773394,3.6454627701,-0.0278242881468,3.54594130539
2.88563103713,7.07087964658,3.23371669565,6.82026408854
12.5832643403,11.7362965231,-0.164742320554,9.86458687168
3.88089764352,12.8117133996,-0.553201336759,4.60890965482
2.55853094672,15.7171302761,1.18833964703,8.75323243797
7.80616424992,6.48254715254,0.849880630827,3.39755522111
14.5037975531,10.367964029,1.45142161462,3.35187800426
3.61143085631,18.0133809055,4.44296259842,7.6962007874
2.14906415951,15.418797782,4.48450358221,6.54052357054
0.536697462703,13.8942146585,3.426044566,4.73484635369
-5.77566923411,4.43963153498,-2.2924144502,4.08916913683
-4.95803593091,8.10504841147,2.86912653359,5.72349191998
-3.15040262771,6.76046528795,0.310667517388,-2.11218529688
2.87723067548,11.6358821644,-0.497791498819,1.64213748627
-0.195136021328,8.01129904093,-2.12625051503,5.53646026941
-2.00750271814,2.87671591742,-0.79470953123,2.88078305255
1.56013058507,6.87213279391,-0.143168547434,3.2451058357
1.50776388826,10.1375496704,-2.20162756364,5.57942861884
7.40539719145,13.5529665469,2.83991342015,6.76375140199
9.36303049465,13.7983834234,-0.178545596053,5.13807418513
15.0106637978,5.41380029985,-4.00700461226,7.13239696827
12.018297101,11.7392171763,0.244536371534,16.5067197514
17.0159304042,10.9946340528,2.40607735533,14.9610425346
10.2135637074,13.1900509293,-2.27238166088,13.1653653177
8.30119701062,12.4754678058,-4.78084067708,13.4296881009
13.8388303138,6.3208846823,-3.32929969329,10.374010884
3.83646361702,3.23630155878,1.07224129051,7.80833366714
8.82409692021,11.2417184353,2.9437822743,7.79265645028
12.7917302234,10.8771353118,-1.0746767419,6.16697923343
7.84936352661,11.8225521882,-0.273135758111,9.50130201657
10.0769968298,2.96796906473,-2.80159477432,6.46562479971
7.38463013299,7.54338594122,-2.81005379052,5.88994758286
7.98226343619,5.48880281771,0.0714871932723,4.534270366
12.8698967394,7.0542196942,-1.06697182293,6.45859314915
7.47753004258,7.02963657068,-2.79543083914,6.77291593229
9.59516334577,-0.454946552833,-4.78388985535,1.41723871543
16.472796649,-0.529529676343,-1.41234887155,3.30156149858
14.9204299522,5.41588720014,-4.57080788775,5.18588428172
4.20806325536,4.92130407663,-5.53926690396,6.08020706487
12.5456965586,3.62672095312,-1.93772592017,6.10452984801
7.50332986176,-5.06786217039,-4.69618493637,-1.53114736884
4.28096316495,-1.6524452939,-3.66464395258,4.0131754143
-0.861403531853,4.25297158259,-2.66310296879,5.29749819744
-0.583770228659,17.2383884591,-0.861561984992,10.6418209806
8.21386307453,3.68380533556,-3.4100210012,8.52614376373
5.73149637773,-1.32077778796,-7.0084800174,5.69046654688
2.41912968092,-1.96536091147,-3.54693903361,4.89478933002
6.25676298411,3.49005596501,-1.87539804981,8.75911211316
12.3543962873,5.04547284151,-3.22385706602,9.41343489631
9.3220295905,-1.56911028201,-4.52231608222,1.86775767945
1.0696628937,-4.43369340552,-3.67077509843,0.712080462596
2.2272961969,-4.94827652903,-3.00923411464,1.87640324574
0.384929500091,-4.83285965255,-5.33769313084,-1.51927397111
-7.43743719671,1.01255722394,-1.57615214705,0.835048812027
-1.61980389352,3.96797410043,1.18538883675,2.60937159517
-3.52217059032,-4.74660902308,-1.43307017946,-3.13630562168
-8.69453728713,-1.89119214659,-0.541529195667,-4.25198283854
-1.67690398393,1.46422472989,-0.499988211872,-2.2076600554
-8.18927068073,-0.0303583936184,-1.75844722808,-0.903337272252
-4.77163737754,-2.38494151713,-1.37690624428,-2.64901448911
0.405995925656,-6.74952464065,-3.72536526049,-3.22469170596
-6.06637077115,-3.54410776416,0.116175723306,-1.65036892282
-1.81873746795,-1.78869088767,-1.5222832929,-2.98604613968
1.02889583524,-3.77327401118,-4.99074230911,-6.20172335653
-4.89347086156,-6.90785713469,-9.54920132531,-6.41740057339
-6.40583755837,-3.51244025821,-3.98766034152,-4.00307779024
0.211795744828,-8.91702338172,-0.25611935772,-6.6587550071
5.45942904802,-6.75160650523,-2.16457837393,-3.67443222395
0.437062351222,0.173810371256,-1.18303739014,-0.770109440811
4.95469565441,1.44922724774,-1.41149640634,-2.14578665767
-5.69767104239,-5.03535587576,-2.23995542254,-2.95146387452
-2.73003773919,-5.07993899928,-0.298414438748,-5.71714109138
-5.572404436,-3.25452212279,-4.20687345496,-7.03281830823
-4.9147711328,0.100894753698,-1.28533247116,-4.65849552509
-7.50713782961,-2.75368836981,-1.18379148737,-5.63417274195
-3.55950452641,-6.59827149333,0.117749496429,-6.5498499588
-1.40187122322,-3.81285461684,1.82929048022,-5.08552717566
-4.53423792002,3.02256225965,0.220831464012,-2.27120439251
-8.45660461683,0.347979136139,1.31237244781,-2.77688160937
-8.70897131363,-7.81660398738,1.8039134316,-7.93255882623
-4.24133801044,-7.95118711089,4.0354544154,-5.35823604308
-8.74370470725,-1.4657702344,6.08699539919,-2.18391325994
-10.2960714041,-7.12035335792,3.30853638299,-6.35959047679
-11.3884381009,-4.98493648143,5.61007736678,-6.61526769365
-12.6308047977,-10.8595196049,6.07161835057,-10.9009449105
-12.6531714945,-11.4441027284,5.13315933437,-11.7066221274
-13.2255381913,-14.708685852,0.594700318161,-14.9822993442
-15.1279048881,-11.3732689755,3.62624130196,-13.3479765611
-4.72027158488,-2.25785209898,6.26778228575,-5.52365377793
6.91736171832,-1.4324352225,4.20932326954,2.46066900521
3.60499502151,-6.43701834601,6.75086425334,7.38499178836
1.32262832471,-3.11160146952,12.0624052371,3.2593145715
0.860261627902,10.833815407,9.36394622093,10.6536373546
-15.6732921512,-5.38615188953,4.15523982558,-10.2644840116
-13.4936069401,-7.28258552119,3.59176040904,-14.5051171374
-8.65392172907,-3.62901915285,7.16828099249,-6.21575026323
-3.78423651803,-2.19545278451,2.67480157594,-5.57638338903
1.50544869302,-2.02188641617,-0.538677840599,-5.50701651483
-5.94486609594,1.82167995217,-1.01215725714,-4.32764964063
-4.9051808849,0.725246320508,3.03436332631,-2.57828276644
-6.38549567386,-6.59118731115,5.20088390977,-6.02891589224
-9.43581046282,-7.26762094282,3.78740449323,-7.81954901804
-4.00612525178,-0.164054574474,-0.25607492332,-3.15018214384
-1.53644004073,-2.67048820614,-1.75955433986,-2.50081526964
5.76324517031,-2.9669218378,-2.06303375641,-1.41144839544
3.03293038135,-8.91335546946,-3.25651317295,-5.12208152124
-1.82738440761,-10.2097891011,-0.259992589497,-4.29271464704
-0.137699196566,-1.78622273279,0.186527993956,-1.14334777284
2.26198601448,-0.692656364452,-1.48695142259,0.286019101355
-0.128328774488,-5.6390899961,2.03956916087,1.28538597555
-1.96864356344,-5.82552362777,3.37608974432,-0.745247150247
2.1710416476,1.90804274057,6.03261032778,7.83411972395
3.44072685864,4.23160910891,-1.50086908877,8.07348659815
3.39041206968,5.61517547725,-2.81434850531,5.23285347235
4.57009728072,2.69874184558,0.242172078142,1.57222034655
-1.41021750824,-0.457691786069,-0.0513073384027,-1.20841277925
-4.08053229719,2.51587458227,-0.584786754946,1.70095409495
-2.92084708615,6.61944095061,-0.35826617149,1.90032096914
3.7688381249,10.3930073189,0.688254411965,3.61968784334
-5.80147666407,9.38657368728,-2.06522500458,-0.200945282459
-2.84179145302,-3.64985994438,-0.628704421124,-5.73157840826
-3.34210624198,3.55370642396,4.12781616233,0.347788465941
-8.82242103093,8.1272727923,3.99433674579,4.39715534014
1.5672641801,5.49083916064,3.32085732924,2.24652221434
2.60694939115,0.204405528981,0.9273779127,0.345889088536
4.33663460219,-1.05202810268,-3.23610150385,2.06525596273
6.25631981323,-2.43846173435,-3.22958092039,2.06462283694
4.39600502427,3.84510463399,-0.593060336934,3.58398971113
4.51569023531,7.43867100234,0.523460246521,6.82335658533
7.68537544635,0.572237370674,0.629980829977,1.67272345953
5.50506065739,-7.01419626099,-1.33349858657,-4.11790966627
3.55474586844,-3.15062989265,-3.30697800311,0.801457207928
6.32443107948,2.28293647569,-0.780457419656,-0.719175917873
-3.47588370949,0.0665028440271,-2.6339368362,-2.68980904367
-1.60619849844,-0.0499307876307,-5.60741625275,-3.92044216947
-2.3565132874,-5.19636441929,-5.05089566929,-3.18107529528
-4.45682807636,-4.46279805095,-1.34437508584,-0.191708421078
4.27285713469,0.920768317381,-2.88785450238,0.227658453121
1.20254234572,5.90433468572,-2.33133391892,3.84702532732
4.95222755677,6.76790105406,-2.80481333547,5.23639220152
1.8319127678,-1.4785325776,-0.608292752015,-0.674240924283
4.04159797885,2.42503379074,0.598227831444,2.01512594992
4.32128318989,7.15860015908,-1.2352515851,6.59449282412
1.74096840093,7.29216652742,1.64126899836,7.43385969831
1.51065361197,12.6557328958,3.53778958181,8.71322657251
5.01033882302,-4.40070073591,-1.62568983474,1.51259344671
16.6700240341,0.962865632428,-1.01916925128,3.68196032091
9.5997092451,4.35643200078,-3.28264866783,5.75132719511
10.8693944561,3.00999836911,-3.09612808437,5.22069406931
6.51907966719,-0.596435262545,-5.31960750092,1.71006094351
-2.25123512177,-4.11286889421,-1.33308691746,1.05942781771
9.34845008927,-3.79930252588,-0.916566334006,4.20879469191
1.91813530031,-3.15573615753,-2.03004575055,0.828161566105
0.967820511352,-0.902169789188,-1.00352516709,1.7875284403
-1.18249427761,-2.01860342085,-1.81700458364,2.8768953145
2.71719093344,-5.66503705252,-1.81048400018,-1.8137378113
3.44687614447,3.46852931583,1.46603658327,4.7556290629
0.706561355524,5.12209568416,3.19255716673,4.2149959371
8.54624656656,11.7156620525,4.63907775018,5.6043628113
0.295931777604,6.29922842084,4.86559833364,6.4237296855
1.17561698864,-1.23720521082,3.30211891709,1.62309655969
-5.64469780032,4.63636115752,2.46863950055,1.86246343389
-1.02501258927,11.4999275259,3.965160084,7.07183030809
0.554672621773,11.0634938942,4.61168066746,11.7111971823
2.10435783281,-0.712939737467,-0.171798749085,-0.0894359435097
-2.88595695615,2.63062663087,-1.48527816563,-1.16006906931
-1.25627174511,-0.365807000788,-1.79875758217,1.42929780489
7.56341346594,3.38775936755,-2.14223699872,8.66866467909
6.97309867698,8.03132573589,-2.58571641526,6.89803155328
5.13278388802,-0.215107895769,-0.559195831804,3.94739842748
-1.69753090094,-4.80154152743,-0.132675248351,2.40676530168
0.842154310099,-1.8979751591,1.07384533511,5.95613217588
0.0818395211463,4.37559120925,1.81036591856,5.12549905008
-5.89847526782,7.27915757758,0.426886502017,4.18486592428
2.83120994323,-2.55727605407,-0.966592914527,-3.68576720152
1.33089515426,-7.39370968574,-1.92007233107,-3.63640032732
0.430580365311,-2.3701433174,-2.57355174762,1.61296654688
-2.99973442365,-3.70657694906,-3.60703116416,-5.78766657892
-7.0500492126,-2.84301058073,-4.5405105807,-7.15829970473
-9.70036400157,-7.15944421238,-6.93398999725,-8.22893283053
-8.41067879052,-9.24587784404,-2.8674694138,-7.44956595633
-11.0109935795,-12.9523114757,-2.53094883034,-9.24019908213
-8.03130836844,-2.36874510736,2.46557175311,-4.12083220793
-5.1316231574,1.87482126097,2.24209233657,-0.481465333733
3.20806205364,-2.30161237069,-0.121387079977,-0.522098459533
1.04774726468,-4.94804600235,-1.11486649652,-3.23273158533
-3.63256752427,-6.804479634,-1.01834591306,-5.85336471114
-3.24288231323,-2.94091326567,-2.74182532961,-4.06399783694
0.826802897813,-4.10734689733,-3.92530474615,-5.40463096274
-9.37351189115,-7.15378052899,-5.8287841627,-8.42526408854
2.92617331989,-9.08021416065,-5.76226357924,-5.87589721434
0.795858530932,-11.8966477923,-6.90574299579,-5.34653034014
7.09554374198,-0.543081423973,-4.28922241233,0.822836534058
4.60522895302,2.76048494437,-2.81270182888,2.67220340826
2.18491416406,-0.0359486872985,-1.54618124542,0.301570282454
3.8045993751,-2.79238231896,2.57033933804,-1.77906284334
-2.34571541385,3.71118404937,6.18685992149,4.41030403085
-1.28603020281,7.48475041772,5.31338050495,6.97967090505
4.78365500823,3.09831678606,3.2299010884,2.23903777925
10.9933402193,3.4118831544,1.66642167186,2.72840465345
6.31302543032,-0.194550477267,1.10294225531,1.92777152765
-1.19728935865,2.48901589107,2.08946283877,2.23713840185
1.5123958524,6.50258225941,0.745983422225,4.75650527605
-1.70791893656,10.2561486277,4.34250400568,5.33587215024
-0.308233725518,4.23971499609,4.18902458914,2.67523902444
-2.70854851448,-4.90671863557,1.05554517259,-3.64539410136
5.44113669657,-1.06315226723,-1.21793424395,0.61397277284
3.40082190761,3.78041410111,-4.0414136605,-0.36666035296
-0.949492881351,1.68398046945,0.245106922957,-1.10729347876
-4.25980767031,-0.542453162219,1.90162750641,-0.507926604563
-5.03012245928,-4.62888679388,0.498148089868,-2.60855973036
-2.64043724823,-7.31532042554,2.75466867333,-8.57919285616
-4.20075203719,2.8682459428,4.81118925678,-3.65982598197
0.178933173855,4.81181231114,2.94770984023,1.58954089223
-7.83138161511,1.07537867948,0.354230423687,-0.691092233568
-3.10169640406,-8.07105495218,-1.89924899286,-6.26172535937
0.17798880698,-4.58748858384,0.0372715905978,-6.53235848517
0.857674018021,1.3760777845,2.54379217406,-5.43299161097
-4.22264077094,5.44964415284,4.46031275751,-5.35362473677
-7.6529555599,-7.00678947882,0.836833340967,-4.68425786257
-7.45327034886,2.25677688952,5.02335392442,5.26510901163
-0.991584302312,5.42288517444,8.12017078488,8.8931758721
5.58492563749,11.5195658705,5.23413709142,11.8458620788
1.7314355773,10.6662465666,3.04810339795,11.8585482856
3.54794551709,3.54292726266,2.45206970449,7.86123449231
3.52445545689,1.83960795872,2.16603601103,5.54392069905
2.03096539669,2.17628865479,2.08000231757,3.33660690579
7.70747533649,4.54296935086,1.2839686241,2.73929311253
-4.78601472371,6.97965004694,4.90793493064,3.48197931927
3.48049521609,3.29633074301,3.95190123718,3.65466552601
6.34700515589,-6.60698856092,0.415867543714,-1.95264826726
4.4835150957,2.63969213516,0.57983385025,-0.979962060517
-1.0099749645,5.28637283123,-0.536199843213,1.86272414622
2.0965349753,1.3030535273,-1.33223353667,0.455410352961
-2.68695508491,0.919734223375,-0.748267230138,0.738096559699
2.3495548549,0.536414919436,0.235699076398,2.44078276644
0.716064794695,1.88309561551,3.09966538294,1.28346897318
4.3625747345,2.59977631158,2.57363168948,0.236155179915
2.7290846743,10.2864570077,4.11759799601,3.43884138665
1.90559461409,0.0231377037271,-0.568435697453,-1.82847240661
-1.5178954461,-2.81018160019,-1.88446939091,-3.71578619987
1.2586144937,-3.42350090412,-1.10050308437,-4.40309999313
7.31512443349,6.12317979195,1.09346322216,-0.0404137863916
1.8116343733,9.25986048802,2.0374295287,3.27227242035
0.298144313099,3.86654118409,1.12139583524,2.79495862708
-3.1653457471,-2.43677811985,1.50536214178,2.84764483382
-0.328835807304,-0.18009742377,3.02932844831,3.56033104056
