-1.0728488372,-12.6386337209,-2.85251090117,-12.2453234012
9.81987811299,-8.3103555324,-0.343493751146,-4.15505625115
15.1326050632,-9.68207734388,-0.714476601128,2.31521089887
-1.07466798662,-4.97379915537,-3.40545945111,1.97547804889
-18.2019410364,-4.95552096685,-3.39644230109,-6.41425480109
-16.6692140862,-4.20724277833,0.572574848928,-4.27398765107
-4.56648713605,-0.12896458981,0.471591998946,-1.42372050105
-3.89376018585,-2.57068640129,1.98060914896,-0.913453351037
-0.44103323566,-6.35240821277,1.22962629898,-3.78318620102
7.60169371453,-2.05413002425,0.968643449,-1.932919051
1.40442066472,-5.07585183574,-0.632339400981,-2.68265190098
5.34714761491,-8.61757364722,-5.33332225096,-5.23238475096
7.79987456511,-9.4492954587,-4.56430510094,-1.51211760095
6.2326015153,-12.6810172702,-3.32528795093,-2.08185045093
4.94532846549,-13.8227390817,-6.19627080091,-6.95158330091
5.71805541568,-10.7444608931,-6.72725365089,-9.78131615089
4.93078236588,-11.7861827046,-7.44823650087,-10.3710490009
1.30350931607,-14.4579045161,-10.2092193509,-12.9007818509
-0.153763733742,-17.8996263276,-11.9202022008,-16.9305147008
-5.12103678355,-21.3313481391,-10.8011850508,-16.2202475508
-9.62830983336,-13.6930699506,-9.0921679008,-10.8199804008
-4.02558288316,-11.624791762,-6.73315075078,-10.9197132508
-2.80285593297,-7.58651357351,-2.87413360076,-5.13944610076
1.34987101722,-4.128235385,-1.86511645074,-0.699178950743
-2.29740203259,-0.879957196477,-0.996099300723,-0.908911800723
5.47532491761,3.80832099204,0.662917849294,0.321355349295
-3.7619481322,6.93659918056,3.26193499931,2.77162249931
-3.99922118201,6.49487736908,5.38095214933,3.54188964933
-0.916494231817,3.2231555576,5.98996929935,1.25215679935
-6.60376728162,7.53143374612,5.05898644937,2.23242394937
-1.89104033144,8.92971193463,2.61800359939,5.64269109939
-7.10831338124,5.32799012315,3.3370207494,-1.0270417506
-3.94558643105,5.74626831167,4.60603789942,-1.07677460058
-4.68285948086,8.95454650019,5.10505504944,4.75349254944
-5.43013253067,2.26282468871,2.32407219946,-2.29624030054
-9.88740558047,1.96110287722,0.783089349477,-1.00597315052
-8.37467863028,2.46938106574,0.372106499496,-1.14570600051
-10.7719516801,1.94765925426,1.43112364951,-0.845438850485
-7.9892247299,7.57593744278,3.05014079953,3.15482829953
-0.306497779704,8.3042156313,3.57915794955,7.94509544955
3.32622917049,16.1824938198,6.91817509957,16.0753625996
9.64895612068,17.0207720083,10.3271922496,16.6556297496
5.82168307087,18.0690501969,9.44620939961,12.6858968996
9.34441002106,22.1673283854,10.2752265496,20.8161640496
1.01713697126,23.0156065739,11.7242436996,18.9964311996
11.4798639214,21.0438847624,10.6832608497,17.4266983497
6.50259087164,14.8821629509,7.07227799968,9.77696549968
3.05531782183,9.78044113945,6.4112951497,7.2872326497
3.22804477203,7.68871932797,4.14031229972,5.48749979972
6.17077172222,-0.433002483518,0.659329449734,1.34776694974
1.40349867241,0.725275705005,-1.34165340025,-3.68196590025
3.7462256226,-2.07644610648,-1.80263625023,-5.86169875023
-5.09104742721,-5.67816791796,0.64638089979,-5.71143160021
-6.23832047702,-0.749889729439,1.46539804981,-3.28116445019
1.93440647318,-1.79161154092,0.514415199826,-0.650897300171
-1.60286657663,-2.67333335241,-0.616567650155,0.639369849845
3.88986037356,-5.44505516389,-1.49755050014,-6.99036300014
-1.30741267624,-0.116776975367,-0.258533350118,-5.82009585012
5.23531427395,1.93150121315,-0.679516200101,0.210171299901
7.48804122414,-1.85022059833,-0.200499050082,0.940438449919
3.81076817433,2.98805759019,0.868518099936,2.61070559994
0.993495124523,6.42633577871,3.01753524995,6.85097274996
3.08622207471,4.74461396722,2.58655239997,6.89123989997
4.4189490249,4.42289215574,2.39556954999,5.99150704999
3.8316759751,6.82117034426,4.07458670001,8.28177420001
-5.58559707471,7.34944853278,2.77360385003,6.84204135003
2.49712987548,1.9177267213,0.0726210000457,2.72230850005
3.55985682568,6.44600490982,0.461638150065,5.82257565007
-1.71741622413,5.69428309834,0.990655300083,6.15284280009
4.04531072606,5.22256128685,0.149672450101,1.9231099501
4.05803767625,9.57083947537,1.43868960012,4.86337710012
0.700764626446,6.85911766389,-0.972293249862,7.24364425014
-0.366508423365,3.18739585241,-1.47327609984,7.84391140016
-0.723781473171,8.62567404093,3.78574105017,8.37417855018
1.45894547702,11.0339522294,4.87475820019,11.4044457002
2.10167242722,12.212230418,5.77377535021,12.8947128502
3.18439937741,16.4305086065,5.85279250023,14.8949800002
11.7571263276,14.718786795,3.65180965025,15.2052471503
5.80985327779,14.0870649835,2.21082680027,12.3355143003
8.70258022798,13.745343172,0.279843950285,11.5957814503
9.32530717817,14.0236213606,0.598861100303,11.1360486003
7.23803412836,15.2718995491,2.77787825032,11.6663157503
7.12076107856,12.4201777376,2.02689540034,8.84658290034
4.92348802875,9.28845592611,0.915912550358,3.15685005036
9.76621497894,2.95673411463,1.75492970038,1.31711720038
-1.04105807087,2.22501230315,-2.2160531496,-1.8426156496
2.71166887933,1.75329049167,-3.94703599959,1.03765150042
5.47439582952,2.93156868019,-2.14801884957,-0.0420813495657
-9.30287722029,-2.33015313129,-3.83900169955,-5.37181419955
-10.5601502701,-9.78187494278,-4.15998454953,-11.2815470495
-14.6574233199,-15.2935967543,-5.78096739951,-13.3212798995
-13.1746963697,-12.8853185657,-5.77195024949,-11.4710127495
-11.9919694195,-14.9270403772,-7.34293309948,-13.6907455995
-12.7192424693,-20.0987621887,-9.37391594946,-14.1704784495
-5.32651551914,-13.8504840002,-7.30489879944,-9.26021129944
-8.35378856894,-11.6422058117,-5.50588164942,-9.30994414942
-8.02106161875,-7.58392762315,-5.1168644994,-7.6396769994
-10.3283346686,-9.86564943463,-5.55784734938,-10.0894098494
0.504392281633,-8.60737124611,-5.40883019937,-7.36914269936
-0.892880768173,-8.22909305759,-5.08981304935,-3.32887554934
-1.57015381799,-8.67081486907,-5.37079589933,-6.70860839933
-1.93742686779,-7.49253668055,-5.18177874931,-6.37834124931
-4.1746999176,-6.02425849203,-4.27276159929,-5.82807409929
-1.52197296741,-9.82598030352,-4.24374444927,-8.94780694927
-4.05924601722,-8.227702115,-5.12472729926,-6.87753979925
-10.406519067,-2.64942392648,-0.355710149237,-3.54727264924
-6.35379211683,0.338854262038,-0.386692999219,-1.14700549922
-0.791065166639,-0.0728675494429,-1.4276758492,0.0132616508035
2.00166178355,-5.44458936093,-2.46865869918,-4.62647119918
-4.80561126626,0.603688827596,-0.629641549164,2.52379595084
2.91711568394,2.11196701611,0.589375600855,3.21406310086
2.70984263413,0.750245204628,2.34839275087,-0.0356697491243
-4.19743041568,3.90852339315,3.11740990089,0.914597400895
-4.27470346549,-3.43319841833,-0.653572949091,-2.31513544909
-0.0119765152922,1.36507977018,1.10544420093,0.0751317009308
-0.599249565101,3.9533579587,2.61446135095,0.785398850949
-1.25652261491,4.57163614722,3.51347850096,-0.144333999031
-1.55379566472,0.66991433574,4.37249565098,0.875933150986
0.448931285475,1.53819252426,5.191512801,1.496200301
-2.61834176433,3.13647071278,5.80052995102,2.29646745102
8.41438518586,-2.6352510987,2.90954710104,-1.15326539896
-2.12288786395,-4.98697291018,-0.101435748944,-3.89299824894
-0.470160913756,-10.6286947217,-0.182418598925,-5.84273109892
5.31256603643,-9.19041653315,0.876598551093,-2.2924639489
4.87529298663,-5.86213834463,1.13561570111,-2.50219679889
5.53801993682,-6.14386015611,-1.42536714887,-2.69192964887
13.000746887,-7.04558196759,-1.16634999885,-1.02166249885
10.6934738372,-6.40730377907,-0.147332848835,-2.52139534883
7.92168968025,-1.01553052325,0.938273982556,2.89576308139
10.5219866439,3.94007207358,2.70153935291,5.18139082814
2.02228360764,3.1956746704,0.624804723263,1.50701857489
2.00258057134,-2.28872273278,-0.681929906384,-2.07735367836
10.652877535,-2.33312013596,-1.92866453603,-2.49172593161
7.70317449874,1.48248246087,0.684600834324,-0.60609818486
3.37347146243,-0.291914942311,0.0678662046766,0.529529561889
-0.536231573871,-2.06631234549,-1.31886842497,-3.08484269136
2.47406538983,-1.12070974867,-0.775603054616,-2.50921494461
-1.90563764648,-1.08510715184,0.0976623157376,-2.59358719786
-4.53534068278,-1.29950455502,2.18092768609,-0.697959451112
-6.83504371909,-3.0539019582,2.63419305644,-3.64233170436
-0.734746755385,-0.978299361377,2.9574584268,-6.33670395761
3.51555020831,-1.08269676455,2.80072379715,-2.36107621086
-6.70415282799,0.362905832269,5.5539891675,0.934551535887
-1.5638558643,3.94850842909,6.47725453786,4.27017928264
-3.6835589006,-0.245888974081,3.15051990821,1.44580702939
-9.9632619369,1.86971362274,2.79378527856,3.87143477614
-7.7929649732,1.94531621956,4.05705064892,3.92706252289
-7.54266800951,0.370918816385,3.45031601927,-1.22730973036
-3.83237104581,3.53652141321,3.59358138962,-0.0216819836132
-0.0820740821146,5.40212401003,4.44684675998,3.80394576313
0.94822288158,4.27772660686,4.50011213033,4.21957350988
-0.88148015472,8.02332920368,1.99337750069,3.67520125664
2.24881680898,6.2589318005,2.64664287104,5.34082900338
1.19911377267,4.97453439732,2.13990824139,5.10645675013
0.599410736369,0.900136994147,-0.536826388254,0.0020844968858
6.45970770007,-1.23426040903,0.0264389820995,-2.29228775637
2.70000466376,2.58134218779,4.16970435245,0.313339990384
1.67030162746,3.72694478461,3.81296972281,-0.0110322628661
-12.2094014088,-6.80745261856,-0.23376490684,-6.16540451612
-3.14910444515,-2.26185002174,2.56950046351,-3.87977676936
-8.64880748145,-3.43624742492,1.88276583387,-2.21414902262
-4.89851051775,-7.0406448281,-2.76396879578,-7.64852127587
-9.18821355405,-8.08504223127,-3.81070342543,-9.94289352912
-17.7179165904,-9.24943963445,-2.93743805507,-12.2572657824
-2.02761962666,-12.4638370376,-4.11417268472,-9.29163803562
-6.85732266296,-9.58823444081,-2.23090731437,-8.27601028887
-8.06702569926,-8.73263184398,-2.18764194401,-10.5003825421
-3.63672873557,-4.89702924716,-1.15437657366,-4.74475479537
-1.35643177187,-3.38142665034,-0.341111203305,-0.839127048619
-0.236134808176,-4.82582405351,-1.11784583295,-2.66349930187
-4.77583784448,-2.02022145669,-3.1745804626,-3.09787155512
-3.63554088078,-4.11461885987,-3.03131509224,1.42775619163
-0.145243917086,-7.44901626305,-2.30804972189,-1.13661606162
-0.944946953387,-8.71341366622,-3.24478435154,-6.39098831487
-3.09464998969,-4.5478110694,-2.70151898118,-3.41536056812
2.11564697401,-2.43220847258,-2.63825361083,0.44026717863
7.6159439377,-0.986605875751,-1.84498824048,2.17589492538
14.3862409014,0.178996721072,-1.37172287012,7.35152267213
3.61653786509,0.844599317894,-1.36845749977,2.98715041888
19.2868348288,3.00020191471,-0.695192129417,4.20277816563
4.08713179249,0.0858045115383,-0.821926759064,2.24840591238
0.867428756184,0.611407108361,-0.818661388711,2.59403365913
3.17772571988,5.04700970518,-0.125396018358,7.45966140588
7.77802268358,4.36261230201,2.747869352,5.38528915263
3.90831964728,7.07821489883,2.63113472235,5.71091689938
-3.35138338902,5.12381749566,0.364400092703,0.856544646129
-3.97108642532,5.49942009248,0.547665463057,5.06217239288
0.809210538369,5.4150226893,0.350930833411,6.81780013963
5.54950750207,2.37062528612,0.504196203763,3.41342788638
0.159804465762,6.19622788295,-0.332538425882,5.38905563313
4.28010142946,5.67183047977,-3.63927305553,7.34468337988
8.15039839316,9.77743307659,-2.11600768518,7.65031112663
-1.48930464315,7.37303567341,-0.992742314823,4.03593887338
-5.23900767945,5.37863827024,-2.30947694447,2.04156662013
-6.13871071575,2.74424086706,-2.34621157412,-2.24280563312
-0.898413752053,1.03984346388,-4.00294620376,-3.43717788638
-2.91811678836,2.1054460607,-3.63968083341,0.308449860375
3.39218017534,10.3210486575,-3.04641546306,8.81407760713
8.73247713903,11.9866512543,-3.3631500927,10.1497053539
6.00277410273,10.6722538512,-4.06988472235,7.04533310062
7.50307106643,3.217856448,-4.98661935199,1.20096084737
7.75336803012,2.16345904482,-6.14335398164,3.22658859413
7.13366499382,-4.42093835836,-6.09008861129,-0.737783659126
7.98396195752,-4.52533576154,-5.45682324093,-0.722155912377
11.8442589212,-5.19973316471,-5.48355787058,-0.696528165627
7.78455588491,-5.90413056789,-6.90029250023,-3.68090041888
9.52485284861,3.11147202893,-3.79702712987,5.03472732787
16.6551498123,6.92707462576,0.00623824047943,9.24035507462
4.49544677601,6.44267722258,-1.46049638917,5.43598282137
16.0057437397,6.3182798194,-0.807231018814,5.26161056812
-0.443959296601,6.28388241622,0.96603435154,4.47723831487
1.3463376671,3.65948501305,-0.0807002781066,1.17286606162
7.96663463079,1.32508760987,2.11256509225,0.718493808372
-9.96306840551,1.92069020669,2.8358304626,-1.92587844488
-9.35277144182,-0.863707196484,2.13909583295,-2.23025069813
-2.09247447812,-2.45810459966,-0.557638796693,-3.31462295138
-11.8121775144,-4.50250200284,0.605626573661,-9.75899520463
-11.0918805507,-3.01689940601,1.19889194401,-8.27336745788
-20.681583587,-2.38129680919,-1.25784268563,-5.13773971113
-16.1212866233,-7.24569421237,-4.13457731528,-9.05211196438
-9.44098965963,-5.26009161555,-5.79131194493,-5.66648421763
-1.39069269594,-1.92448901873,-5.15804657457,-0.0508564708816
-2.48039573224,-4.2588864219,-5.21478120422,-2.13522872413
-2.19009876854,-4.55328382508,-4.97151583386,-2.07960097738
1.18019819516,-6.01768122826,-6.83825046351,-1.71397323063
-9.42950484115,-5.67207863143,-9.18498509316,-5.02834548388
6.17079212255,-3.36647603461,-7.8817197228,2.31728226287
-0.688910913756,-1.45087343779,-1.59845435245,2.52291000962
0.831386049944,-2.55527084097,1.0248110179,-2.16146224363
0.761683013639,-4.57966824414,0.218076388256,-1.65583449688
-2.51802002266,-3.98406564732,1.34134175861,-0.370206750133
-8.66772305897,-3.8384630505,1.43460712896,-4.89457900338
-3.45742609527,-8.70286045367,0.637872499316,-5.59895125663
0.882870868427,-9.71725785685,1.42113786967,-3.66332350988
-4.28683216788,-3.33165526003,4.95440324002,-0.137695763133
-7.29653520418,-0.866052663205,5.78766861038,1.49793198362
-0.45623824048,0.469549933616,5.79093398073,2.72355973037
-7.31594127678,-4.06484746956,6.82419935108,0.499187477115
-0.385644313086,-2.25924487274,6.56746472144,-0.995184776133
-5.68534734939,0.276357724088,4.89073009179,1.55044297062
2.92494961431,2.68196032091,3.51399546214,3.94607071737
2.00524657801,7.78756291773,4.7672608325,5.48169846411
9.8955435417,9.90316551456,5.67052620285,9.91732621087
2.3658405054,7.11876811138,5.0837915732,6.06295395761
-0.563862530904,4.8943707082,4.42705694356,3.92858170436
-7.64356556721,3.17997330502,4.61032231391,1.05420945111
5.38673139649,4.80557590185,5.17358768426,0.669837197864
3.08702836018,2.76117849867,3.94685305462,2.19546494461
-0.642674676117,0.336781095491,2.83011842497,0.181092691362
3.10762228758,2.22238369231,1.65338379532,-0.233279561886
2.92791925128,-0.622013710861,1.58664916568,-2.63765181514
1.52821621497,-1.14641111404,0.00991453603092,-2.71202406839
6.43851317867,-1.07080851722,0.863179906384,-3.68639632164
0.248810142366,-1.88520592039,0.126445276738,-3.39076857489
1.67910710606,-4.66960332357,-1.17028935291,-7.55514082814
-0.0605959302375,-2.04400072675,-0.0170239825547,-8.25951308139
2.66864825583,-7.50152616278,-4.99660247093,0.290937499993
9.60794734825,-9.10582668581,-4.98586857375,-1.59540108268
-4.69275355932,-8.45012720883,-4.29513467657,-3.02173966536
-0.63345446689,-4.89442773186,-3.43440077939,1.17192175196
0.795844625536,0.16127174511,-2.50366688221,4.43558316928
-0.754856282034,6.62697122208,-0.602932985032,10.1892445866
12.1644428104,8.60267069906,1.12780091215,11.9729060039
5.24374190282,7.12837017603,0.158534809328,8.33656742125
7.11304099525,12.004069653,2.11926870651,15.4302288386
4.99234008768,15.31976913,4.77000260369,15.9538902559
9.0416391801,16.055468607,4.86073650087,14.6375516732
-0.599061727469,13.2511680839,5.72147039805,13.9612130905
-5.48976263504,6.45686756089,2.96220429523,10.0748745079
-6.44046354261,6.79256703787,4.21293819241,8.36853592519
4.89883554981,6.95826651484,4.69367208959,9.18219734251
-9.22186535775,2.17396599182,2.67440598677,3.91585875984
9.33743373467,5.53966546879,3.83513988395,8.74952017716
8.1567328271,8.96536494576,5.72587378113,11.2831815945
4.38603191953,6.24106442273,5.47660767831,4.1868430118
13.665331012,6.3367638997,5.08734157549,4.53050442913
9.81463010439,6.71246337668,5.45807547267,8.20416584645
15.4739291968,2.62816285365,4.66880936985,4.21782726377
3.94322828924,0.713862330624,1.37954326703,-0.268511318904
13.3825273817,1.0495618076,0.230277164208,2.53515009842
8.9418264741,5.08526128457,1.16101106139,4.55881151574
7.39112556652,2.22096076154,-2.17825504143,1.70247293307
5.38042465895,0.646660238515,-3.40752114425,0.666134350389
3.81972375138,-1.20764028451,-2.94678724707,-1.32020423229
9.28902284381,2.39805919246,-0.966053349892,2.51345718504
12.9383219362,1.17375866943,-1.21531945271,-0.982881397642
2.72762102867,-1.75054185359,-2.00458555553,-3.45921998032
5.77692012109,-3.46484237662,-0.763851658352,1.104441437
0.166219213519,-7.12914289964,-2.20311776117,-4.36189714567
-13.1844816941,-6.88344342267,-2.09238386399,-8.50823572835
-6.54518260163,-6.1577439457,-4.16164996681,-8.11457431103
6.83411649081,-8.74204446873,-2.49091606963,-7.75091289371
2.77341558323,-10.2663449918,-1.02018217245,-10.6672514764
-4.30728532434,-7.08064551478,-1.13944827527,-4.71359005906
-8.27798623191,-6.00494603781,-1.72871437809,-2.48992864174
5.14131286052,-3.96924656084,-1.73798048091,-5.56626722441
0.630611952944,-2.60354708386,-1.62724658373,-5.31260580709
6.48991104537,-3.03784760689,-0.806512686552,-1.99894438977
-3.3807898622,-1.72214812991,0.304221210628,-1.58528297244
-3.84149076977,-4.46644865294,-0.775044892192,-5.87162155512
26.2078083227,-4.08074917597,1.02568900499,-5.2279601378
9.47710741508,-2.535049699,-0.123577097831,-3.63429872048
-7.39359349249,-5.98935022203,-0.132843200652,-4.43063730315
-9.22429440006,-11.2636507451,-3.11210930347,-11.6869758858
-16.0949953076,-10.1379512681,-1.89137540629,-12.5733144685
-15.2856962152,-6.65225179111,-0.800641509111,-8.87965305119
4.07360287722,-6.48655231413,-2.63990761193,-7.83599163386
-2.95709803035,-9.55085283716,-2.79917371475,-8.90233021654
-2.21779893792,-5.29515336018,-0.528439817572,-2.60866879922
-6.80849984549,-6.80945388321,-1.60770592039,-4.30500738189
-2.37920075306,-5.04375440624,-2.84697202321,-8.14134596457
-3.30990166064,-9.05805492927,-2.49623812603,-9.68768454725
-8.58060256821,-8.2923554523,-2.18550422885,-8.70402312993
-24.4613034758,-3.27665597532,2.25522966833,-2.0103617126
-12.2320043834,-7.59095649835,1.50596356551,-9.17670029528
28.3072947091,-1.34525702137,2.01669746269,-2.52303887796
-17.6634061985,1.6004424556,2.98743135987,-2.19937746063
-7.06410710607,-5.18385806743,-0.141834742951,-7.58571604331
-3.19480801364,-4.37815859045,-0.571100845771,-6.79205462599
-14.4755089212,1.14754088652,2.22963305141,-2.68839320867
-23.0662098288,2.07324036349,-1.72963305141,-5.96473179134
-13.6569107364,-4.32106015954,-3.27889915423,-9.13107037402
-14.9876116439,-4.62536068257,-3.66816525705,-9.2774089567
1.9816874485,-6.20966120559,-3.35743135987,-6.14374753937
-7.45901345907,-8.17396172862,-2.42669746269,-11.7600861221
-20.1097143666,-4.69826225164,-2.52596356551,-5.00642470473
-24.9304152742,-6.84256277467,-2.37522966833,-8.1727632874
-1.38111618179,-6.8368632977,-2.06449577115,-7.48910187008
9.19818291064,-2.96116382072,-2.25376187397,-4.55544045276
-4.43251799693,-5.57546434375,-5.23302797679,-6.84177903544
-10.3032189045,-8.96976486678,-7.36229407961,-9.98811761811
-0.123919812078,-6.99406538981,-3.37156018243,-9.33445620079
-9.61462071965,-8.32836591283,-4.09082628525,-11.9807947835
-2.30532162722,-2.63266643586,-2.04009238807,-8.77713336614
4.16397746521,-0.0769669588881,-2.35935849089,-5.79347194882
-17.6467234424,8.90873251808,1.05137540629,-1.9198105315
-23.2074243499,10.7244319951,2.58210930347,1.22385088582
-8.03812525751,8.25013147203,2.80284320065,4.33751230315
-3.35882616508,3.695830949,0.873577097829,-0.128826279531
-20.9695270727,2.38153042597,-1.52568900499,-3.87516486221
-3.26022798022,7.57722990295,2.02504489219,-0.461503444885
0.949071112205,5.76292937992,2.75577878937,-1.43784202756
-2.06162979537,4.6286288569,2.23651268655,1.25581938976
-13.5023307029,10.5143283339,3.78724658373,5.19948080709
2.46696838949,8.53002781084,3.13798048091,6.36314222441
-7.29373251808,10.9957272878,2.58871437809,6.53680364173
-7.61443342565,9.54142676479,1.55944827527,3.84046505905
-6.67513433323,8.65712624176,2.85018217245,5.47412647638
-8.5858352408,4.90282571873,-1.11908393037,2.7377878937
-6.05653614837,3.2285251957,-2.59835003319,-2.39855068898
7.02276294406,4.28422467268,-2.87761613601,1.90511072834
13.5620620365,6.70992414965,-2.05688223883,2.35877214567
-7.72863887109,3.04562362663,-1.43614834165,-1.02756643701
-12.9993397787,3.9713231036,-0.455414444471,3.71609498031
1.82995931377,5.31702258057,1.99531945271,4.59975639763
39.1092584062,4.71272205755,1.69605334989,5.34341781496
-18.8414425014,-0.351578465485,-0.103212752931,1.39707923228
0.547856591053,6.80412101149,5.54752114425,14.0407406496
11.3271556835,2.26982048846,3.23825504143,6.62440206693
5.39645477591,1.93551996544,5.28898893861,5.49806348425
-2.67424613166,4.40121944241,6.75972283579,4.43172490157
4.89505296076,0.76691891938,5.90045673297,-1.4346136811
-11.6656479468,1.10261839635,6.56119063015,-4.45095226378
1.62365114562,2.35831787333,5.21192452733,-3.36729084646
3.05295023805,3.0140173503,4.74265842451,0.956370570864
6.01224933048,3.63971682727,2.11339232169,3.52003198819
4.9315484229,6.24541630425,2.26412621887,6.90369340551
-2.72915248467,1.42111578122,1.50486011605,3.97735482283
8.72014660776,3.29681525819,2.61559401323,5.98101624016
15.1394457002,2.54251473517,1.17632791041,6.19467765748
-1.70125520738,-2.55178578786,0.0670618075892,-1.7816609252
13.168043885,-1.84608631089,-0.892204295231,0.152000492126
8.96734297747,-2.29038683392,-1.71147039805,-0.844338090552
-1.3733579301,-4.09468735694,-1.58073650087,0.72932332677
1.02594116233,-5.61898787997,-2.32000260369,2.2529847441
10.1352402548,-7.693288403,-3.48926870651,-0.813353838585
9.17453934719,-4.17758892602,-3.63853480933,1.52030757874
8.06383843961,-4.52188944905,-3.77780091215,6.50396899606
14.403137532,-7.22618997208,-5.05706701497,2.53763041339
18.7424366245,-1.48049049511,-3.27633311779,4.71129183071
13.2717357169,-0.864791018132,-1.02559922061,7.47495324803
13.1010348093,-0.149091541156,-1.32486532343,6.60861466535
5.96033390175,2.17660793581,0.79586857375,11.7122760827
2.06963299418,3.14230741279,-0.013397529071,10.5459375
4.03519985465,5.92618095931,-8.9199636628,6.8214425872
28.2514873077,11.169414084,-5.31110227637,14.4773167689
3.59777476081,13.6826472086,-4.43224088995,12.6431909506
3.39406221388,14.8658803333,-3.05337950353,12.4390651323
-7.30965033304,18.7691134579,-2.03451811711,15.894939314
9.67663712004,19.9523465826,-0.855656730685,17.2308134957
9.38292457311,16.6755797073,-1.73679534426,11.4066876774
3.84921202619,17.8088128319,0.952066042159,8.48256185908
13.8154994793,16.1720459566,1.15092742858,10.0784360408
-0.75821306766,10.3152790812,-0.0902111849973,7.23431022248
-9.63192561458,13.3885122059,1.21865020142,8.26018440417
2.01436183849,16.4417453305,1.58751158785,13.7060585859
10.3806492916,18.4249784552,3.50637297427,14.4419327676
3.93693674465,17.7982115798,4.61523436069,12.2478069493
-6.51677580228,15.6914447045,3.84409574711,12.233681131
-2.6904883492,5.93467782915,-0.217042866467,5.61955531267
16.7257991039,7.40791095381,-0.488181480044,5.69542949436
13.422086557,8.18114407847,-1.03932009362,6.25130367606
10.26837401,6.87437720313,0.3895412928,5.23717785776
5.9346614631,5.92761032778,0.348402679222,3.47305203946
1.38094891618,0.890843452442,0.167264065643,-0.651073778845
7.61723636926,2.7640765771,1.04612545207,1.46480040285
16.6035238223,-1.73269029825,-0.685013161513,0.59067458455
-3.22018872459,-11.4894571736,-1.20615177509,-9.60345123375
-12.4739012715,-6.99622404893,-1.59729038867,-1.67757705206
-7.66761381844,-7.41299092428,-2.11842900225,-3.92170287036
