5.00694404071,-10.0739389535,-0.0267296511702,-9.20947674419
2.55447740227,-6.34601644043,0.41173754806,-7.56954526987
6.87201076383,-0.728093927384,1.21020474729,-6.26961379555
3.18954412539,-7.01017141434,1.00867194652,-11.7996823212
7.84707748696,-10.8422489013,0.737139145753,-9.14975084691
4.86461084852,-4.91432638824,2.36560634499,-6.8098193726
10.1921442101,-0.156403875197,3.57407354422,-3.96988789828
10.1096775717,4.48151863785,3.59254074345,1.32004357604
9.08721093322,5.2594411509,4.77100794268,4.03997505036
7.75474429478,-6.76263633605,2.34947514191,-1.15009347532
5.82227765634,-6.59471382301,-1.29205765886,-7.40016200101
4.41981101791,-9.90679130996,-2.70359045963,-11.6002305267
6.00734437947,-3.72886879691,-3.6651232604,-8.37029905237
5.90487774104,-9.27094628387,-5.05665606117,-11.9303675781
3.7424111026,-10.0230237708,-4.74818886193,-13.3404361037
-1.50005553584,-7.96510125777,-4.0397216627,-10.7805046294
-3.48252217428,0.752821255272,-1.11125446347,-6.4905731551
-2.57498881271,2.10074376832,-0.352787264241,-5.89064168078
-2.54745545115,0.138666281375,-0.914320065011,-6.73071020647
-2.20992208958,-5.24341120558,-0.54585286578,-7.98077873215
-2.08238872802,-4.97548869254,-1.16738566655,-8.04084725783
0.405144633543,0.302433820514,-3.20891846732,-5.87091578351
3.65267799511,7.10035633356,-1.51045126808,1.11901569081
4.71021135667,11.1282788466,2.34801593114,6.80894716512
-4.60225528177,-2.65379864035,0.0264831303757,-2.74112136056
0.1852780798,0.2941238727,-6.12504967039,-4.53118988624
3.41281144136,6.36204638574,-2.23658247116,5.96874158808
6.68034480292,9.46996889879,-2.68811527193,5.5586730624
4.16787816449,10.6778914118,-3.0096480727,5.70860453671
0.57541152605,5.56581392488,-1.67118087347,6.25853601103
4.87294488761,4.38373643793,-1.09271367424,5.89846748535
5.35047824919,6.85165895098,-0.804246475011,6.53839895967
1.55801161074,12.679581464,-0.965779275779,9.43833043399
-0.87445502769,11.9275039771,-1.30731207655,9.5182619083
3.49307833387,5.02542649012,-2.41884487732,6.40819338262
5.18061169544,4.96334900316,-2.25037767809,8.74812485694
-2.171854943,10.1112715162,0.878089521146,10.6680563313
-4.57432158144,12.9691940293,-0.223443279625,11.1779878056
0.553211780127,8.25711654231,0.135023919607,9.64791927989
-3.95925485831,4.79503905535,0.663491118838,8.07785075421
-5.33172149675,4.9429615684,0.211958318068,6.95778222853
-1.23418813518,0.980884081444,-2.6895744827,1.11771370285
-2.97665477362,4.11880659449,-1.44110728347,3.63764517716
-7.20912141206,4.12672910753,-0.662640084236,7.38757665148
-3.69158805049,2.56465162058,1.815827115,8.8975081258
-6.03405468893,8.44257413363,3.01429431422,12.0474396001
-3.58652132736,10.9504966467,4.98276151346,14.1573710744
-7.3789879658,7.88841915972,3.08122871269,9.41730254875
-2.21145460424,-0.773658327227,0.949695911917,5.69723402307
-3.52392124267,-0.665735814182,2.93816311115,2.15716549739
-9.39638788111,-6.91781330114,-1.24336968962,-0.662903028293
-7.28885451955,-4.38989078809,-1.85490249039,1.29702844603
-4.26132115798,1.35803172497,0.173564708843,5.33695992034
-5.59378779642,-0.0440457619916,-0.627968091925,3.67689139466
-7.72625443486,-7.34612324894,-1.18950089269,-0.883177131022
-5.42872107329,-0.928200735892,1.92896630654,4.8267543433
0.438812288266,4.41972177715,2.73743350577,6.52668581761
4.93634564984,5.0476442902,1.745900705,7.25661729193
-3.6561209886,-2.61443319675,0.134367904229,4.38654876625
1.47141237296,-1.71651068371,0.872835103462,3.77648024057
-1.14105426547,-13.5185881707,-3.66869769731,-2.46358828511
0.236479096093,-0.0806656576169,-0.350230498076,5.0163431892
2.23401245766,1.79725685543,-1.62176329884,0.806274663521
-2.56845418078,-7.26482063152,-4.42329609962,-2.01379386216
-1.42092081922,-9.70689811848,-3.81482890038,-0.0738623878433
-1.32338745765,-2.07897560543,0.0436382988482,3.22606908648
7.3541459039,1.78894690762,0.892105498078,5.67600056079
-0.548320734531,4.43686942066,1.18057269731,7.61593203511
0.889212627037,0.824791933708,1.19903989654,4.23586350943
0.426745988603,-5.20728555324,3.04750709577,-0.994205016254
-1.08572064983,4.8906369598,5.455974295,3.51572645806
0.841812711733,9.65855947285,3.86444149424,4.55565793238
-2.0306539267,-0.643518014105,1.63290869346,3.1155894067
-3.36312056514,-1.86559550105,1.36137589269,1.97552088102
-1.72558720358,-5.07767298801,3.25984309193,-2.07454764466
-10.078053842,-4.71975047496,3.56831029116,-5.57461617035
-12.1005204805,-1.36182796192,1.72677749039,-5.15468469603
-16.7429871189,0.946094551131,1.21524468962,-4.86475322171
-16.7154537573,-5.13598293582,0.293711888851,-5.43482174739
-11.4079203958,-4.41806042277,0.672179088084,-2.17489027308
-14.0403870342,-3.58013790973,1.85064628731,-1.08495879876
-8.53285367264,5.78778460332,6.55911348655,4.51497267556
-10.6753203111,11.3757071164,7.71758068577,5.09490414988
-7.8077869495,-0.156370370591,1.656047885,-3.6951643758
-7.39025358794,-0.838447857539,4.11451508423,3.40476709851
-6.67272022638,-6.94052534449,2.97298228347,2.08469857283
-4.89518686481,0.837397168558,2.6814494827,5.47463004715
-5.49765350325,2.54531968161,2.17991668193,4.63456152147
-1.38012014169,-6.67675780535,0.528383881159,-2.13550700421
-5.43258678012,-10.9488352923,1.21685108039,-5.5155755299
0.654946581439,-9.85091277926,0.92531827962,-2.64564405558
-4.597520057,-6.78299026621,-0.446214521147,-4.10571258126
-0.849986695437,-4.61506775316,-2.85774732192,-7.70578110694
-7.15245333387,-13.8171452401,-4.80928012268,-7.59584963262
-5.41491997231,-13.5192227271,-2.26081292345,-8.96591815831
-8.85738661074,-9.45130021402,-1.77234572422,-9.82598668399
-7.59985324918,-7.56337770097,-2.83387852499,-9.60605520967
-9.69231988762,-6.28545518793,-1.06541132576,-9.88612373535
-11.604786526,-2.57753267488,-0.336944126531,-7.58619226104
-0.39725316449,-11.4896101618,-2.1884769273,-9.20626078672
7.99028019707,-4.53168764879,0.369990271931,-3.5263293124
-0.852186441363,1.88623486426,1.03845747116,0.843602161918
-1.0946530798,6.62415737731,2.57692467039,5.26353363624
10.8928802818,3.14207989035,4.67539186963,5.08346511055
9.79041364333,-2.7299975966,3.33385906885,-3.32660341513
-2.92205299511,-0.962075083553,2.10232626809,-3.75667194081
7.14548036645,7.30584742949,2.46079346732,0.123259533507
1.81301372802,6.06376994254,0.79926066655,2.10319100782
8.21054708958,3.09169245559,0.0177278657793,-1.25687751786
8.07808045115,0.54961496863,2.51619506501,-1.57694604354
3.86561381271,8.59753748168,5.21466226424,5.62298543078
10.5331471743,8.69545999473,0.943129463474,6.7329169051
9.44068053584,10.0833825078,-1.53840333729,7.50284837941
9.4982138974,3.09130502082,-1.51993613807,4.37277985373
8.56574725897,-2.25077246613,-2.33146893883,0.74271132805
8.64328062053,5.62715004691,0.726998260398,2.37264280237
4.02081398209,8.55507255996,-0.32453454037,5.31257427669
7.40834734365,7.012995073,-1.53606734114,3.762505751
12.6858807052,2.08091758605,-2.07760014191,0.582437225322
0.963414066784,-0.241159900899,-1.18913294268,-2.45763130036
-0.709052571648,4.96676261214,-2.04066574345,-2.46769982604
13.3284807899,-0.165314874801,-5.03219854422,-3.63776835172
10.9960141515,2.52260763825,0.166268655015,-2.98783687741
3.16354751304,-3.93946984871,-1.84526414575,-6.59790540309
5.31108087461,-12.4415473357,-5.51679694652,-12.0979739288
2.02861423617,-5.47362482262,-4.41832974729,-7.14804245445
1.70614759773,3.49429769043,-4.26986254806,-2.25811098014
9.6936809593,2.78222020348,-6.48139534883,-4.17817950582
-1.16534156975,-7.07577398255,-3.93243095931,-9.10947674418
-2.88011473401,-5.4743026403,-2.56291556034,-5.24355732695
-4.17488789827,-7.19283129806,-3.10340016138,-3.11763790972
-2.32966106253,2.54864004419,-3.45388476241,0.448281507511
2.97556577322,3.00011138643,-0.864369363448,0.714200924742
0.0507926089704,0.671582728675,0.595146035521,-0.419879658027
3.60601944471,-0.246945929081,2.73466143449,2.5160397592
3.86124628045,4.51452541316,3.21417683345,0.891959176435
-0.783526883803,5.00599675541,1.44369223242,0.377878593667
1.32169995194,3.25746809765,1.10320763138,0.0537980108984
-2.47307321231,3.8789394399,0.752723030349,2.15971742813
-2.97784637657,-2.70958921785,-2.45776157069,1.80563684536
-0.472619540822,-0.678117875606,0.081753828279,3.88155626259
2.91260729492,7.32335346664,0.931269227247,6.83747567982
2.44783413067,10.2948248089,-0.489215373789,6.28339509705
3.12306096641,4.25629615113,-0.639699974825,6.71931451429
5.20828780215,7.73776749337,1.87981542414,7.56523393152
4.5235146379,6.72923883561,2.24933082311,5.20115334875
-1.69125852636,4.49071017786,1.16884622207,4.85707276598
-3.87603169061,9.8121815201,3.41836162104,10.4429921832
0.379195145128,4.20365286235,3.60787702,4.56891160044
0.654421980871,-2.3448757954,2.81739241897,-1.43516898233
-6.58035118338,-4.11340445316,0.976907817934,-2.0392495651
0.624875652364,-1.19193311092,-0.623576783102,0.186669852136
-1.3398975119,0.639538231328,0.105938615863,-4.99741073063
-6.90467067615,-6.52899042643,-1.46454598517,-7.0514913134
-6.9194438404,-7.15751908418,-0.955030586207,-6.37557189617
-6.88421700466,-2.66604774194,-0.00551518724023,-3.97965247894
-6.11899016892,1.39542360031,-0.215999788274,-4.08373306171
-10.1437633332,-0.503105057447,-0.966484389304,-5.64781364448
-11.0485364974,-4.0616337152,-1.68696899034,-5.37189422725
-10.2633096617,-7.64016237296,-3.15745359138,-5.59597481001
-9.85808282594,-2.91869103071,-1.81793819241,-2.84005539278
-9.1928559902,-3.75721968846,1.01157720655,-6.14413597555
-6.89762915445,-0.285748346229,0.191092605521,-5.01821655832
-6.14240231871,-3.44427700398,0.650608004486,-2.35229714109
-4.06717548296,-9.48280566173,1.69012340345,-1.61637772386
-12.9519486472,-1.01133431949,3.17963880242,0.829541693374
-0.966721811477,5.36013702276,3.59915420138,5.4154611106
-4.15149497573,2.251608365,2.51866960034,1.71138052784
-4.57626813999,-4.09692029275,0.788184999314,0.597299945068
-3.70104130424,-11.7454489505,-0.202299601722,-3.9567806377
-5.3458144685,-9.71397760826,-1.49278420276,-5.67086122047
-4.16058763275,1.59749373398,-0.623268803793,1.72505819676
-1.13536079701,1.36896507622,-1.17375340483,0.0609776139927
-2.69013396126,-6.22956358152,-1.22423800586,-3.85310296878
-1.27490712552,-7.14809223928,-1.5247226069,-2.92718355155
1.45031971022,-5.04662089704,-0.64520720793,-0.281264134313
1.61554654597,2.8448504452,0.194308191036,5.41465528292
3.90077338171,-5.49367821255,-2.33617641,-0.479425299851
-0.363999782538,-5.56220687031,-3.12666101103,-4.05350588262
3.6012270532,-6.13073552807,-1.46714561207,1.18241353461
9.48645388895,-5.58926418582,2.0823697869,3.51833295184
7.32168072469,10.4822071564,6.48188518587,8.90425236907
10.9269075604,4.89367849867,1.59140058483,6.1001717863
5.14213439618,3.30514984093,1.87091598379,5.69609120354
6.95736123192,-2.37337881683,0.120431382758,-0.847989379232
10.5025880677,2.82809252541,0.849946781727,2.997930038
12.9178149034,8.02956386765,-0.210537819312,3.36384945523
8.85304173916,3.1410352099,-0.421022420345,-1.21023112754
6.75826857489,-4.48749344786,-1.88150702138,-3.04431171031
6.47349541064,-7.79602210561,-3.72199162241,-5.13839229308
8.62872224639,-0.42455076336,-0.642476223449,-3.50247287585
2.33394908213,2.41692057888,-0.32296082448,0.663446541386
4.05917591787,1.89839192112,-1.42344542552,0.939365958618
-1.83559724638,2.70986326337,1.37606997345,1.58528537585
2.81962958936,-0.828665394387,1.08558537241,-0.30879520692
6.97485642511,2.39280594786,-1.16489922862,1.23712421031
3.63008326085,3.9542772901,-2.35538382965,-0.836956372457
-1.39468990341,-0.00425136765261,-3.57586843069,-3.58103695523
0.870536932343,-1.1527800254,-3.33635303172,-4.445117538
0.335763768089,-6.47130868316,-2.25683763276,-6.44919812076
-5.83900939617,-2.33983734091,-0.297322233793,-4.37327870353
-4.38378256043,5.93163400132,1.91219316518,0.572640713699
0.891444275316,6.38310534357,2.55170856414,2.09856013093
0.836671111065,-1.84542331419,1.17122396311,-5.13552045184
0.641897946807,-4.15395197194,0.430739362069,-5.35960103461
2.56712478254,-1.5824806297,1.38025476103,-1.44368161738
1.05235161829,-2.01100928745,0.969770160002,-1.83776220015
5.75757845404,2.1004620548,1.58928555897,0.338157217087
7.39280528978,-0.938066602961,-0.931199042072,-3.79592336568
6.40803212553,-12.7465952607,-4.4916836431,-7.90000394845
9.14325896127,-6.55512391846,-3.42216824414,-3.13408453122
13.128485797,3.23634742378,-1.98265284517,7.68183488601
15.6137126328,5.33781876602,-1.09313744621,9.60775430324
14.3289394685,3.67929010827,-0.303622047242,5.95367372047
12.9041663042,3.08076145051,-1.11410664828,6.1095931377
8.23939313999,9.38223279276,1.80540875069,5.11551255494
1.33461997574,3.723704135,0.0249241496567,-1.29856802783
5.40984681148,3.40517547725,-2.14556045138,-1.1626486106
3.60507364723,5.43664681949,-1.46604505242,2.82327080663
3.86030048296,-2.03188183827,-3.55652965345,0.969190223862
1.64552731871,-3.44041049602,-5.79701425448,-0.224890358907
0.0207541544587,4.54106084623,-2.94749885552,0.421029058324
9.88598099021,6.93253218847,-0.457983456552,6.39694847556
2.38120782594,1.07400353071,-1.66846805759,2.13286789279
-1.92356533831,-2.34452512704,-0.318952658621,-0.611212689982
8.38166149743,6.81694621521,3.94056274034,4.06470672725
-2.63311166682,5.53841755745,2.71007813931,-0.12937385552
1.11211516893,6.3198888997,0.979593538272,0.766545561712
-1.01265799534,-0.388639758057,1.85910893724,0.632464978943
5.56256884041,-2.17716841582,0.398624336205,0.348384396175
3.40779567615,6.29430292643,2.48813973517,5.6043038134
0.323022511904,7.20577426867,1.56765513413,6.46022323064
4.21824934764,6.53724561092,-0.162829466899,4.65614264787
6.39347618339,3.04871695316,1.43668593207,2.5620620651
2.99870301913,3.67018829541,5.84620133103,2.51798148233
-1.25607014512,7.36165963765,5.05571673,5.45390089956
-8.20084330937,0.323130979894,2.81523212897,-2.30017968321
-3.61561647364,3.98460232215,2.31474752793,-1.49426026597
-4.04038963789,2.81607366439,4.4242629269,0.121659151256
-5.39516280215,-3.55245499337,4.81377832586,1.37757856849
-12.4099359664,-1.01098365113,5.45329372483,0.293497985718
-9.00470913066,0.780487691125,1.91280912379,-1.00058259705
-5.93948229492,2.90195903337,0.522324522757,0.81533682018
-7.42425545917,-0.426569624389,-0.158160078277,-1.72874376259
-11.7790286234,-4.27509828214,-3.40864467931,-5.39282434536
-4.46380178769,-5.9536269399,-2.40912928035,-3.79690492813
-6.39857495194,2.04784440235,-1.38961388138,-1.29098551089
-8.34334811619,2.28931574459,-0.950098482415,-2.31506609366
4.18187871955,-0.79921291316,-0.830583083451,0.640853323568
-8.2228944447,-6.53774157092,0.528932315512,-2.6132272592
-11.367667609,-3.21627022867,2.12844771448,-1.58730784197
-4.92244077322,4.69520111357,0.747963113448,4.27861157526
-7.97721393747,-3.66332754419,-2.36252148759,1.91453099249
-5.76198710172,-7.46185620194,-3.00300608862,0.0204504097246
-4.59676026599,-12.4003848597,-5.09349068966,-6.50363017304
-4.23153343024,-13.4789135175,-4.85397529069,-10.7477107558
-14.6183175872,-11.9627289244,-3.94936046512,-15.6133248546
-4.58701657206,-9.68336385276,-3.75024898141,-13.7671812054
-9.3257155569,-12.2539987811,-1.05113749771,-15.8110375561
-12.0244145418,-17.6946337095,-3.17202601401,-17.9248939068
-11.0031135266,-13.7652686378,-2.39291453031,-16.1387502575
-9.39181251144,-0.875903566179,-1.7638030466,-11.1926066082
-4.03051149629,-4.61653849454,-4.5446915629,-9.16646295893
-13.7492104811,-13.4871734229,-6.2655800792,-13.6203193096
-8.25790946598,-16.8878083513,-4.1664685955,-14.1641756604
-14.2866084508,-12.5184432796,-2.70735711179,-11.7180320111
-9.77530743568,-4.55907820796,-1.61824562809,-10.2018883618
-9.93400642052,-8.85971313632,-1.05913414439,-11.9957447125
-16.1227054054,-14.4303480647,-3.25002266069,-16.3496010632
-13.7514043902,-13.580982993,-1.64091117699,-12.4634574139
-6.94010337507,-5.47161792139,-1.06179969328,-5.69731376465
-2.84880235991,-1.34225284974,-0.37268820958,-3.47117011536
-2.95750134476,-0.362887778101,-0.0835767258759,-4.80502646608
-10.2862003296,-1.42352270645,-0.334465242173,-3.19888281679
-10.6748993145,-6.50415763482,1.34464624153,-4.5327391675
-4.97359829931,-5.78479256316,2.14375772523,-2.79659551822
-7.45229728416,0.794572508479,4.02286920894,-0.610451868933
-5.84099626901,0.883937580118,2.74198069264,-1.42430821965
-5.54969525385,1.54330265177,2.79109217634,2.03183542964
0.321605761303,0.602667723411,5.81020366004,-0.322020921076
4.19290677646,1.31203279505,5.04931514375,-1.53587727179
-1.30579220839,0.8013978667,2.87842662745,-1.2097336225
1.50550880676,4.44076293834,4.86753811115,1.72641002678
1.46680982192,2.51012800999,3.53664959485,-1.76744632393
2.32811083707,-12.0705069184,-0.904238921441,-8.26130267465
0.0994118522212,-6.24114184672,1.12487256226,-3.88515902536
6.20071286737,-2.47177677508,-0.466015954036,-1.36901537607
6.24201388253,-4.61241170343,-3.50690447034,-5.53287172679
4.45331489768,-5.80304663179,-3.03779298663,-3.2367280775
6.57461591283,-10.0336815601,-5.26868150293,-6.51058442822
8.27591692799,-8.11431648851,-3.86957001923,-3.65444077893
8.65721794314,-0.864951416857,0.359541464473,-0.198297129646
2.2885189583,0.724413654782,0.508652948178,0.41784651964
-3.10018002655,-7.66622127357,-2.37223556812,-4.42600983107
-0.918879011399,-2.74685620192,-1.61312408442,-0.429866181788
7.20242200375,5.58250886972,0.235987399286,11.2262774675
9.9237230189,6.67187394136,1.35509888299,10.2124211168
8.36502403406,17.081239013,0.994210366691,13.0685647661
8.58632504921,15.5406040847,1.8033218504,15.6047084154
5.00762606436,10.7899691563,3.5424333341,14.0308520646
14.6589270795,15.6593342279,3.3615448178,16.3969957139
20.5402280947,24.1986992996,4.43065630151,20.1431393632
13.9715291098,21.6180643712,1.78976778521,18.8992830125
8.69283012498,15.4874294429,0.358879268908,17.3054266618
11.3741311401,8.08679451452,-0.222009247387,14.3515703111
10.1954321553,15.3461595862,2.83710223631,17.8077139604
10.3667331704,20.0155246578,4.60621372002,20.5438576096
15.1080341856,18.0148897294,1.85532520372,19.4900012589
16.0193352007,13.9242548011,2.36443668742,14.9861449082
13.2306362159,7.59361987274,1.44354817112,13.9722885575
15.731937231,12.4329849444,2.52265965483,19.0384322068
10.2132382462,18.742350016,3.03177113853,18.5845758561
8.13453926134,15.0217150877,1.24088262223,14.8807195054
11.6658402765,12.9810801593,0.839994105936,14.4468631546
9.11714129165,6.61044523096,1.63910558964,12.4330068039
7.3284423068,9.7798103026,1.30821707334,13.8991504532
10.209743322,19.9491753742,4.71732855704,20.6652941025
10.1610443371,17.0785404459,5.41644004075,17.5914377518
9.69234535226,13.1879055175,4.65555152445,11.9675814011
2.99364636742,6.02727058918,1.79466300815,9.70372505036
2.47494738257,5.32663566082,-0.0662255081443,10.2998686996
7.52624839772,8.14600073246,-0.537114024442,8.83601234893
8.77754941287,6.41536580411,-2.72800254074,6.30215599821
0.948850428031,1.02473087575,-2.57889105704,1.3082996475
-1.07984855682,-0.0559040525986,-3.93977957333,0.724443296785
6.18145245833,6.26346101904,-0.280668089632,5.29058694607
10.7427534735,8.11282609069,0.368443394073,6.55673059536
8.75405448864,6.72219116233,-2.11244512222,5.92287424464
-2.55464449621,2.81155623397,-2.38333363852,1.21901789393
-1.53334348105,-7.87907869438,-4.08422215482,-8.08483845679
-1.4420424659,-2.49971362274,-2.15511067112,-6.2086948075
1.75925854925,3.19965144891,0.0240008125838,-1.44255115821
-0.789440435597,4.46901652055,0.253112296286,1.07359249107
-4.45813942044,5.8983815922,1.81222377999,3.88973614036
-4.46683840529,-6.87225333616,1.34133526369,2.15587978964
-1.35553739013,-0.532888264519,1.72044674739,1.92202343893
3.60576362502,1.09647680713,0.379558231096,3.47816708822
4.16706464017,-0.454158121232,-1.4513302852,0.144310737501
-5.56163434467,-4.20479304958,0.327781198503,-3.28954561321
-1.11033332953,0.0245720220628,1.6968926822,0.976598036073
9.42096768563,-3.2160629063,0.936004165909,3.47274168536
-1.15773129922,0.71330216535,2.60511564961,2.45888533464
-0.106430284068,2.43266723699,1.53422713331,2.78502898393
-9.60512926891,-3.13796769136,2.18333861702,1.56117263322
-3.10382825376,-2.62860261972,1.80245010072,-1.3526837175
-2.50252723861,-2.98923754808,0.361561584421,-1.84654006821
-5.52122622346,3.15012752357,1.41067306813,-0.110396418927
0.45007479169,5.35949259521,0.559784551828,2.35574723036
-0.418624193153,-4.79114233314,-0.62110396447,-1.04810912035
-3.907323178,-5.74177726149,-0.381992480765,-0.92196547107
-4.69602216285,1.27758781015,0.587119002932,1.79417817822
-6.1047211477,-0.343047118207,-1.23376951336,-0.139678172498
-6.35342013254,-4.92368204657,-0.444658029661,-3.69353452321
0.227880882609,-7.72431697492,-1.03554654596,-3.63739087393
1.58918189776,-12.5549519033,-0.856435062255,-6.69124722464
-8.46951708708,-9.52558683164,0.442676421448,-7.07510357535
-2.10821607193,2.56377824002,0.661787905152,1.30104007393
-3.91691505678,-3.89685668835,-0.439100611147,-3.18281627678
-3.89561404163,-12.4174916167,-2.19998912744,-8.2166726275
-5.32431302647,-14.9781265451,-2.04087764374,-8.94052897821
1.78698798869,-5.71876147341,-2.11176616004,-7.18438532893
-5.86171099616,0.710603598236,-2.45265467633,-5.42824167964
-2.69040998101,-1.15003133012,-2.65354319263,-4.92209803035
-2.50910896586,-5.87066625848,-2.90443170893,-5.71595438107
-6.46780795071,-10.1713011868,-0.845320225228,-7.21981073178
-6.64650693555,-4.20193611519,1.25379125848,-6.0636670825
-1.1652059204,0.667428956454,1.20290274218,-5.58752343321
-6.53390490525,-3.1632059719,0.822014225883,-7.65137978392
2.15739610991,-6.29384090026,-0.828874290415,-9.91523613464
-4.37130287494,-11.4444758286,-2.21976280671,-12.1590924854
-4.99000185979,-6.12511075697,-0.700651323008,-8.79294883607
1.40129915537,-4.90574568533,-1.26153983931,-6.47680518678
-6.37739982948,-5.82638061368,-4.14242835561,-10.0406615375
-7.92609881433,-9.76701554204,-2.2033168719,-10.3545178882
-1.64479779918,-11.1076504704,-2.4242053882,-9.24837423892
3.13650321597,-2.12828539875,-1.1050939045,-5.81223058964
2.51780423113,-1.50892032711,-1.51598242079,-4.32608694035
-3.74089475372,5.06044474454,0.163129062908,-0.359943291067
-3.85959373856,-2.30019018382,-1.55775945339,-4.83379964178
-6.78829272341,-7.87082511217,-0.598647969688,-7.0776559925
-9.44699170827,-4.12146004053,1.68046351401,-4.79151234321
-2.07569069311,5.86790503112,1.67957499772,-1.64536869392
-5.13438967796,1.54727010276,0.218686481421,-2.29922504464
-5.24308866281,1.8366351744,2.18779796513,1.53691860465
-9.66449127907,-8.1691351744,1.50734738371,-9.47290697674
-7.04954358176,2.47138885393,3.17900702137,-2.57193230979
-5.93459588446,6.96191288227,4.90066665903,2.75904235717
-5.42964818714,6.02243691061,4.02232629669,1.44001702413
-9.20470048983,6.62296093894,3.99398593434,-0.779008308917
-11.0397527925,-1.19651503272,2.275645572,-4.27803364196
-11.3448050952,9.63400899562,3.50730520966,0.522941024998
-9.99985739792,2.15453302395,-0.521035152684,-5.66608430805
-4.65490970061,0.23505705229,-1.90937551502,-5.81510964109
-10.9599620033,-4.78441891937,-0.277715877364,-6.37413497413
-4.04501430599,-10.673894891,1.48394376029,-7.88316030718
-7.30006660868,-0.693370862697,1.88560339795,-0.93218564022
4.94488108862,6.35715316564,5.65726303561,8.04878902674
-6.36017121407,-0.812322806021,3.95892267327,-2.35023630631
-8.09522351676,-2.45179877769,-0.939417689075,-2.26926163935
-2.62027581944,-6.18127474935,-2.68775805142,-0.888286972394
9.38467187787,-3.62075072101,-0.626098413759,-0.717312305437
6.52961957517,-3.70022669267,-3.6444387761,-2.66633763848
2.04456727247,-3.99970266434,-4.25277913844,-4.24536297152
9.23951496978,-2.389178636,-2.56111950078,0.155611695433
6.88446266709,-6.03865460766,-0.459459863127,-1.75341363761
0.619410364401,-2.04813057933,-1.19780022547,-3.12243897065
9.83435806171,0.502393449009,-3.16614058781,2.5985356963
6.23930575902,1.67291747735,-2.34448095015,3.43951036326
11.8142534563,-1.35655849431,-2.41282131249,1.53048503022
7.25920115363,0.95396553402,-0.891161674837,0.861459697172
9.11414885094,3.87448956236,-0.55950203718,4.25243436413
11.3990965483,8.3950135907,0.91215760048,8.17340903108
11.2240442456,9.03553761903,1.31381723814,6.91438369804
4.62899194287,9.75606164737,3.32547687579,8.635358365
6.06393964017,1.6065856757,0.147136513453,2.99633303196
9.17888733748,3.62710970404,0.798796151113,5.08730769891
10.0138350348,7.47763373239,2.92045578877,8.12828236587
11.0187827321,6.79815776072,2.82211542643,8.94925703282
6.73373042941,2.46868178905,1.53377506409,5.25023169978
7.20867812671,-2.97079418261,-0.194565298254,-1.47879363326
4.90362582402,3.17972984573,0.697094339401,2.89218103369
11.2785735213,11.0802538741,-0.381246022938,12.2031557007
1.44352121864,8.41077790241,0.340413614718,9.04413036761
1.78846891595,2.25130193074,1.05207325238,7.12510503456
8.58341661326,5.59182595908,1.83373289003,9.10607970152
5.61836431056,9.35234998741,1.67539252769,10.6170543685
3.27331200787,10.8628740158,0.887052165348,12.9180290354
2.76825970518,8.68339804409,1.59871180301,9.37900370239
0.0832074024875,2.34392207242,2.18037144067,2.21997836935
0.0181550998022,-3.75555389924,0.122031078321,-2.4190469637
4.0331027971,5.8949701291,1.44369071598,1.38192770326
-0.461949505589,6.92549415744,1.14535035364,0.502902370216
-3.02700180828,-0.773981814222,-2.5829900087,-0.666122962826
-7.85205411098,-2.91345778589,-2.05133037104,-3.31514829587
-1.83710641367,-4.53293375755,-0.649670733386,-4.10417362891
-3.17215871635,-1.99240972921,-0.158011095729,-2.43319896196
-0.667211019041,0.968114299125,-1.96635145807,-1.792224295
3.22773667827,-6.02136167254,-4.02469182041,-9.01124962804
-7.92731562443,-9.14083764421,0.256967817244,-13.3602749611
-8.19236792712,-10.3003136159,-1.6613725451,-8.48930029413
-9.27742022982,-5.45978958753,-1.57971290744,-4.22832562717
-7.82247253251,-2.47926555919,-1.48805326978,-4.54735096022
-3.8875248352,-6.77874153086,-4.10639363212,-5.10637629326
-13.2425771379,-12.1982175025,-3.45473399446,-9.9854016263
-8.65762944058,-11.5876934742,-3.46307435681,-12.2744269593
-10.6226817433,-7.86716944583,-2.70141471915,-10.2234522924
-11.807734046,-7.9766454175,-2.94975508149,-9.38247762543
-0.472786348655,-4.20612138916,-3.44809544383,-5.34150295848
-8.01783865134,-7.68559736083,-2.52643580618,-6.29052829152
-7.14289095404,-7.29507333248,-2.68477616852,-4.99955362457
-0.0979432567328,-8.47454930415,-3.65311653086,-4.55857895761
-1.37299555942,-1.71402527581,-2.3314568932,-1.18760429065
5.32195213788,-2.82350124748,-1.10979725554,0.663370376305
-0.783100164808,-7.66297721914,-0.308137617882,-2.11565495674
-3.9281524675,-7.8324531908,0.903522019773,-2.25468028978
-7.45320477019,0.0880708375335,2.55518165743,1.42629437717
0.971742927119,4.78859486587,2.28684129509,6.42726904413
6.20669062442,1.75911889421,0.518500932747,4.00824371109
-5.49836167827,1.14964292254,1.01016057041,3.28921837805
0.826586019044,-3.06983304911,1.38182020807,0.620193045001
-0.108466283651,-0.64930902078,2.94347984572,1.93116771196
1.21648141366,5.82121500756,1.29513948338,7.62214237891
2.16142911097,-1.2582609641,-2.31320087896,1.54311704587
-0.45362319173,-8.55773693576,-2.0015412413,-6.35590828717
-1.65867549442,-7.51721290743,-1.99988160365,-6.29493362022
-2.23372779711,-3.05668887909,-1.32822196599,0.96604104674
4.0912199002,-0.0561648507573,-0.376562328329,2.0270157137
0.946167597504,3.12435917758,-0.264902690673,0.677990380653
-1.99888470519,-7.05511679408,-3.08324305301,-5.98103495239
-2.93393700788,-5.39459276575,-1.27158341535,-2.24006028543
3.51101068943,-2.29406873741,-1.2699237777,0.240914381523
-1.05404161326,0.486455290928,-2.18826414004,-0.45811095152
-3.61909391595,-1.27302068073,-4.22660450238,1.23286371544
3.20585378136,-5.1324966524,-3.62494486472,-1.23616161761
2.65080147866,-2.75197262406,-2.51328522707,0.55481304935
-0.674250824028,-1.04144859572,-2.26162558941,0.785787716307
-1.31930312672,0.669075432612,-2.10996595175,-3.50323761674
0.945644570587,2.38959946096,-3.22830631409,-0.182262949781
5.3505922679,-7.33987651071,-4.05664667643,-3.16128828282
2.0255399652,-4.64935248237,-3.34498703878,-1.18031361587
4.84048766251,3.99117154596,-0.843327401119,6.01066105109
8.06543535981,11.1116955743,1.67833223654,8.64163571805
9.61038305712,3.80221960264,-1.3400081258,4.372610385
4.58533075443,-2.81725636902,-0.358348488146,0.653585051959
0.120278451745,-2.34673234069,0.983311149514,1.51455971891
4.38522614905,2.49379168765,1.11497078717,3.76553438587
5.67017384636,-0.715684284012,0.666630424828,0.906509052828
10.8151215437,7.42483974432,1.99829006249,4.53748371979
-2.67993075903,-0.38463622734,0.98994970015,0.198458386742
3.84501693828,0.185887800995,0.861609337804,4.5094330537
8.09996463559,3.72641182933,1.97326897546,6.76040772065
7.0749123329,7.28693585767,4.52492861312,3.71138238761
-7.65013996979,3.85745988601,1.43658825078,1.27235705457
-3.98519227248,-0.0920160856549,0.938247888436,-0.566668278476
7.70975542482,-4.64149205732,1.6999075261,-3.70569361152
-1.00529687787,0.549031971022,1.29156716375,-1.32471894456
-2.99034918055,5.40955599936,2.16322680141,2.27625572239
-8.23540148325,5.20008002769,2.69488643907,2.17723038935
-4.73045378595,0.330604056035,1.17654607673,-0.421794943693
-5.10550608864,-2.76887191563,0.368205714385,-4.92082027674
-3.67055839133,-1.23834788729,2.17986535205,-7.04984560978
0.62438930598,6.37217614104,1.7315249897,-0.508870942823
3.6693370033,7.55270016938,4.00318462736,3.31210372413
-1.8257152994,1.38322419771,2.97484426502,-1.52692160891
-9.1007676021,-4.25625177394,1.56650390267,-2.40594694195
-8.78581990478,1.04427225439,1.62816354033,0.135027725003
-4.92087220748,4.90479628273,-0.0701768220097,-1.97399760804
1.21407548983,1.24532031106,-2.52851718435,-2.78302294108
-0.800976812861,-5.36415566059,-2.99685754669,-4.51204827413
-0.70602911555,-2.38363163226,0.214802090966,-0.87107360717
1.68891858176,8.33689239607,4.48646172863,4.72990105979
-0.676133720939,12.0074164244,5.90812136628,3.88087572674
8.16976017444,25.4928670058,5.11176235464,23.5346329942
12.5863682819,15.6046316494,4.11153282937,22.061522386
10.5629763894,19.856396293,6.6013033041,22.3784117778
2.9395844969,17.6781609366,5.60107377883,19.2153011697
7.7761926044,17.6799255803,3.85084425356,20.3821905615
11.3728007119,17.3016902239,3.08061472829,18.4790799533
7.15940881937,10.6534548675,3.09038520302,14.7059693451
9.72601692686,7.18521951108,3.16015567775,13.442858737
3.77262503435,11.6769841547,2.13992615248,13.2897481288
2.60923314184,10.4787487983,1.18969662721,10.1866375206
4.78584124933,9.33051344191,3.27946710194,11.1735269124
3.59244935682,4.05227808552,1.38923757667,6.77041630425
-2.76094253569,-5.02595727087,-0.880991948598,0.637305696073
-3.2543344282,-2.72419262726,-1.45122147387,-1.7758049121
-2.29772632071,2.01757201635,-2.07145099914,1.76108447972
-4.92111821323,2.54933665995,1.24831947559,0.0479738715439
-7.99451010573,-9.43889869643,-2.63191004968,-7.93513673663
-6.47790199825,-5.94713405283,-0.16213957495,-4.07824734481
-6.01129389076,-3.69536940922,0.267630899783,-1.98135795298
5.10531421673,-0.473604765612,-0.10259862549,-1.21446856116
5.52192232422,-4.301840122,-1.50282815076,-3.17757916934
0.28853043171,-6.09007547839,-2.14305767603,-5.23068977751
-0.034861460801,-4.16831083479,-0.3632872013,-3.79380038569
-8.99825335331,0.163453808833,-0.55351672657,-5.99691099387
-1.01164524582,1.61521845244,-0.213746251837,-0.810021602042
2.45496286167,-1.15301690395,1.62602422289,-2.41313221022
-4.39842903084,-0.441252260345,2.86579469762,-5.09624281839
-5.81182092335,-8.53948761673,-0.0544348276489,-9.46935342657
-5.68521281586,0.652277026878,0.785335647084,-6.51246403475
-11.4786047084,-3.53595832951,-0.884893878188,-8.72557464292
1.22800339911,-8.34419368591,-2.32512340346,-6.7286852511
-6.66538849339,-7.7624290423,0.584647071271,-6.25179585928
-6.51878038591,-6.98066439869,0.754417545999,-7.18490646745
-3.26217227842,-7.06889975508,0.784188020731,-7.96801707563
-6.95556417093,-4.49713511147,0.753958495461,-10.2411276838
-13.4489560634,-9.60537046786,-0.986271029811,-11.714238292
-15.702347956,-16.6636058243,-3.34650055508,-16.0873489002
-5.45573984845,-16.0418411806,-2.70673008035,-17.0004595083
-1.39913174097,-6.41007653704,-0.796959605621,-4.48357011651
-4.13252363348,-11.9583118934,-2.62718913089,-8.11668072469
-4.37591552599,-4.75654724982,-0.697418656157,-7.90979133286
-7.0293074185,-17.3647826062,-4.12764818143,-16.312901941
-7.81269931101,-19.4030179626,-4.0278777067,-15.3460125492
0.873908796479,-9.53125331899,-2.56810723197,-12.0391231574
5.83051690396,-9.61948867538,-3.46833675724,-11.0022337656
-4.32287498855,-10.2177240318,-5.67856628251,-9.49534437374
7.11373311894,-10.8759593882,-4.47879580778,-7.23845498192
0.440341226436,-11.5241947446,-2.27902533305,-7.07156559009
-0.863050666077,-3.74243010095,-0.50925485832,-2.24467619827
-1.60644255859,-2.47066545734,-1.20948438359,-4.22778680645
4.3601655489,-4.39890081372,-3.52971390886,-4.67089741462
5.04677365639,-6.25713617012,-0.67994343413,-6.2540080228
-2.85661823612,-9.51537152651,-1.9501729594,-6.71711863098
-4.85001012863,-4.51360688289,-1.91040248467,-7.09022923915
0.146597978863,6.92815776071,1.57936799006,-0.783339847329
4.85320608635,6.69992240432,0.769138464791,2.4135495445
-11.0001858062,-3.84831295207,-0.77109106048,-5.48956106368
-6.91357769867,-1.94654830846,0.738679414251,-2.60267167186
1.46303040882,3.29521633514,1.86844988898,1.84421771997
4.75963851631,8.23698097876,2.25822036371,4.96110711179
-0.513753376203,4.41874562237,1.25799083844,0.957996503616
-0.40714526872,-3.11948973402,-0.722238686827,-0.505114104561
-0.870537161223,-1.39772509041,0.867531787899,2.98177528726
-3.55392905374,6.86403955319,2.31730226263,2.40866467909
-5.86732094624,6.2358041968,1.42707273736,0.48555407091
-5.72071283876,-0.382431159589,-1.40315678791,-2.43755653727
-3.17410473127,-3.06066651599,-2.31338631318,-2.88066714544
3.59250337622,-6.09890187237,-1.87361583845,-2.89377775362
-4.20088851629,2.25286277124,-1.68384536372,-4.1868883618
1.6957195912,3.48462741484,-2.79407488899,0.850001030029
-3.96767230131,0.906392058459,-4.35430441426,-5.11310957815
5.14893580617,-6.98184329794,-6.21453393953,-6.07622018632
8.91554391367,-4.37007865433,-2.0947634648,-0.4793307945
13.2721520211,3.43168598929,1.17500700993,1.33755859732
7.33876012864,5.62345063289,0.64477748466,3.55444798915
7.62536823613,2.86521527651,-0.92545204061,3.15133738097
1.33197634362,-4.15302007989,0.594318434123,-0.641773227205
2.66858445112,-0.98125543628,1.79408890885,-1.50488383538
0.545192558602,1.41050920733,-0.456140616418,2.49200555644
0.781800666096,1.11227385094,-2.43637014169,-1.30110505173
-1.28159122642,3.64403849455,-1.41659966696,-3.97421565991
-5.44498311893,-8.81419686184,-2.88682919223,-7.16732626809
-1.29837501144,-7.07243221824,-2.5870587175,-4.93043687626
1.77823309605,-0.34066757463,-1.72728824277,-3.76354748444
-0.105158796461,4.13109706898,-0.21751776804,-1.40665809261
0.741449311026,2.11286171259,0.66225270669,3.20023129921
1.13805741852,0.474626356205,1.11202318142,5.10712069103
1.53466552601,5.95639099981,1.06179365615,5.97401008286
9.43127363349,1.52815564342,-1.43843586912,6.61089947468
4.39788174099,6.68992028703,1.12133460561,5.42778886651
3.96448984847,1.43168493063,-0.92889491966,1.16467825833
3.67109795596,-7.10655042576,-3.66912444493,-4.66843234985
6.72770606345,-2.34478578214,-2.5893539702,2.10845704198
15.3043141709,2.00697886146,0.980416504532,9.3153464338
6.71092227843,2.38874350507,3.85018697926,3.28223582562
1.58753038592,4.67050814869,-0.320042546005,-1.87087478255
-6.46586150659,13.0022727923,1.40972792872,5.30601460927
-3.6792533991,1.5140374359,1.77949840345,2.7129040011
0.397354708388,5.10580207951,-0.110731121818,1.28979339292
-1.14603718412,3.87756672312,-2.88096064709,1.49668278474
0.630570923364,-3.44066863327,-5.08119017236,-1.65642782343
-1.87282096915,-11.7989039897,-5.81141969763,-5.53953843161
1.98378713834,-4.95713934606,-2.5616492229,-2.13264903979
0.590395245832,2.23462529755,1.33812125183,4.44424035204
4.15700335333,8.94638994116,1.52789172656,7.49112974386
2.25361146082,6.76815458477,2.24766220129,5.47801913569
3.41021956831,0.509919228381,2.27743267602,1.19490852751
-0.103172324212,0.551683871992,2.31720315075,0.171797919333
1.29343578329,6.2934485156,1.09697362548,1.39868731116
0.510043890768,7.74521315921,1.88674410021,4.62557670298
3.58665199826,3.78697780282,1.33651457494,5.8124660948
1.11326010575,-1.31125755357,0.0962850496689,3.98935548663
3.40986821324,-0.439492909965,2.6060555244,4.25624487845
-1.33352367928,9.37227173364,5.02582599913,12.3331342703
0.0730844282152,11.9640363773,3.53559647386,10.1900236621
-4.1603074643,8.45580102086,1.89536694859,2.16691305392
-3.85369935681,-1.87243433553,0.565137423324,0.543802445747
1.10290875068,0.469330308086,3.54490789805,5.42069183757
-0.210483141826,8.74109495169,6.12467837278,8.4675812294
1.84612496566,10.6628595953,5.04444884751,10.4844706212
3.18273307315,8.57462423891,3.21421932224,7.20136001304
-5.57065881936,-4.90361111749,0.38398979697,-0.551750595134
5.55594928813,-3.25184647387,3.3037602717,-0.0348612033104
-1.89744260439,2.08991816974,3.02353074643,3.48202818851
-8.18083449689,-1.03831718666,-1.28669877884,-2.19108241966
-4.4542263894,-2.78655254305,-1.85692830411,-3.81419302784
-6.83761828191,-10.0347878994,-3.29715782938,-7.45730363602
-7.06101017442,-10.5430232558,-2.30738735465,-7.99041424419
2.5909520349,3.6853633721,-0.73033430233,6.73638444767
4.85824757371,1.90307049419,-1.81523553379,6.92549281267
7.90554311254,2.42077761629,-2.32013676525,9.07460117767
4.85283865136,-2.03151526162,-0.495037996709,4.10370954267
-0.0798658098211,-0.263808139527,-0.269939228168,5.89281790766
3.397429729,-1.15610101743,-1.59484045963,3.76192627266
2.82472526782,1.80160610465,0.490258308913,3.48103463766
5.24202080664,2.06931322675,-0.124642922547,4.20014300266
2.86931634546,-0.632979651156,0.780455845994,7.33925136765
-8.12338811572,-1.57527252907,1.21555461454,3.65835973265
-1.9460925769,-1.11756540697,0.870653383077,0.317468097647
-3.49879703808,7.06014171513,3.76575215162,3.47657646264
1.06849850075,4.75784883721,2.71085092016,3.48568482764
-2.09420596043,-8.22444404069,-1.9540503113,2.10479319264
1.37308957839,-5.29673691859,-2.31895154276,-1.63609844236
7.1703851172,0.980970203491,-3.43385277422,3.44300992263
4.96768065602,3.46867732559,-2.09875400568,6.71211828763
2.22497619484,-2.45361555232,-3.63365523714,2.05122665263
4.20227173367,-5.10590843023,-3.6885564686,2.02033501763
0.999567272491,-5.32820130813,-3.23345770006,-0.300556617379
10.3068628113,3.33950581396,-0.628358931517,5.78855174762
1.48415835013,10.427212936,0.816739837021,8.83766011262
-1.12854611105,1.82492005815,-2.94816139444,4.12676847761
1.60874942777,2.70262718023,-1.9530626259,7.91587684261
6.53604496659,8.80033430233,5.01203614265,10.4949852076
2.6433405054,2.27804142443,0.167134911186,1.53409357261
11.4506360442,6.92574854651,-1.96776632027,5.0332019376
10.987931583,3.80345566861,-0.102667551731,4.0623103026
4.87522712187,-2.89883720929,0.172431216808,0.831418667597
0.552522660684,0.318869912793,0.877529985351,4.34052703259
-0.890181800489,7.42657703489,2.52262875389,5.37963539759
4.20711373833,8.99428415697,2.30772752243,7.95874376259
3.95440927715,6.65199127907,2.48282629097,6.20785212759
7.11170481597,1.12969840116,1.59792505951,2.40696049258
-2.91099964521,-4.61259447675,1.78302382805,-2.69393114242
-1.65370410639,6.07511264535,5.32812259659,3.83517722258
4.09359143244,9.74281976745,6.19322136513,8.40428558758
-4.04911302875,8.38052688953,6.03832013367,5.26339395257
-0.391817489923,0.538234011627,4.53341890221,0.352502317569
-5.95452195111,3.80594113372,3.66851767075,1.32161068257
3.73277358772,5.05364825581,3.6136164393,5.02071904756
-3.22993087347,7.51135537791,2.32871520783,0.779827412561
-5.54263533464,3.13906250001,0.753813976375,-4.86106422244
-4.21533979582,-4.25323037791,0.768912744916,-6.76195585745
-1.548044257,-5.06552325581,0.734011513458,-8.15284749245
-5.52074871818,3.25218386627,0.249110281999,-2.49373912745
2.69654682063,14.5898909884,0.804209050541,6.47536923755
5.13384235946,7.19759811047,1.69930781908,3.04447760254
-0.958862101717,-3.42469476745,0.504406587617,-3.36641403246
-3.8115665629,1.25301235465,2.59950535616,0.332694332538
1.54572897592,6.37071947675,3.8346041247,1.24180269754
3.65302451474,7.17842659883,2.77970289324,-1.02908893747
4.45032005356,-0.843866279072,0.174801661782,-2.45998057247
0.227615592376,-7.27615915697,-0.350099569674,-7.68087220747
-2.3550888688,-8.95845203489,-0.345000801135,-12.4317638425
0.542206670027,-4.23074491279,-0.799902032595,-9.20265547748
-1.04049779116,-0.863037790696,-1.92480326406,-8.39354711248
-4.31320225234,-6.31533066861,-0.559704495514,-9.38443874748
-9.17590671352,-11.4976235465,-0.344605726976,-12.9353303825
-10.1286111747,-8.98991642443,-0.149506958434,-14.8062220175
-9.00131563587,-7.91220930233,0.325591810109,-12.5771136525
-9.71402009705,-1.54450218024,0.14069057865,-11.2480052875
-7.44672455823,-4.87679505815,-1.10421065281,-11.3588969225
-6.40942901941,-11.039087936,-1.64911188427,-14.8297885575
-7.00213348059,-9.45138081395,-1.61401311573,-14.3806801925
-3.57483794178,-13.9836736919,-4.53891434719,-14.6415718275
2.62245759705,-2.89596656977,-3.78381557865,-5.84246346251
-5.37024686413,-12.4682594477,-4.46871681011,-13.1933550975
-5.29295132531,-15.0105523256,-2.53361804157,-16.9342467325
-6.53565578649,-12.9128452035,-2.00851927303,-12.5451383675
-8.68836024767,-7.4551380814,-1.97342050448,-11.1060300025
-11.7010647088,1.65256904069,-0.888321735943,-8.10692163752
-7.53376917003,-7.77972383721,-4.9532229674,-9.94781327253
-10.0464736312,-9.19201671513,-3.84812419887,-7.28870490753
2.01082190761,-6.70430959303,-0.463025430323,-4.05959654253
2.90811744643,0.673397529063,0.742073338217,-1.23048817753
-1.93458701474,7.24110465116,2.24717210676,-1.20137981254
-4.21729147593,-5.61118822675,-1.4277291247,-7.87227144754
-2.33999593711,-8.60348110466,-2.27263035616,-8.96316308254
-11.9427003983,-6.89577398256,-1.76753158762,-9.64405471755
-10.7054048595,-3.44806686047,-1.60243281908,-8.65494635255
0.0318906793545,0.329640261625,-2.03733405054,-6.25583798755
-6.59081378183,-1.91265261629,0.547764718001,-7.42672962255
-11.633518243,-3.98494549419,0.492863486543,-6.10762125756
-5.43622270419,-5.0972383721,-0.302037744917,-4.97851289256
-0.488927165359,-2.70953125001,-2.88693897637,-4.78940452756
-2.04163162654,4.33817587209,-0.121840207834,-2.88029616257
-7.53433608772,-1.76411700583,-1.07674143929,-6.29118779757
-9.4670405489,-6.02640988373,-3.81164267075,-7.04207943257
-8.51974501008,-8.99870276164,-3.10654390221,-8.55297106757
-1.02244947126,-2.90099563955,-2.36144513367,-4.34386270258
-1.74515393244,-1.80328851745,-3.24634636513,-0.464754337579
1.68214160638,-0.755581395351,-2.23124759659,5.26435402742
2.75943714521,-3.38787427326,-2.03614882805,1.04346239242
0.376732684017,-1.06016715117,0.29894994049,3.80257075741
7.74402822284,8.23753997092,1.98404870903,10.1316791224
0.171323761657,6.43524709301,1.56914747757,3.28078748741
-4.49138069952,4.06295421511,0.574246246113,2.5298958524
0.375914839307,-5.0493386628,-1.22065498535,-1.5309957826
-3.93678962188,-4.40163154071,-0.185556216809,-3.0418874176
-1.61949408305,-2.61392441861,-1.83045744827,-0.842779052604
-0.00219854423631,2.66378270347,-1.32535867973,4.03632931239
2.88509699459,0.491489825574,0.719740088814,5.16543767739
-1.59760746659,1.92919694767,0.284838857355,5.39454604239
2.23968807222,3.51690406975,-1.0900623741,4.85365440738
6.28698361105,10.3146111918,1.98503639444,5.99276277238
1.56427914987,12.2423183139,3.76013516298,5.11187113738
1.16157468869,6.32002543603,2.27523393152,1.59097950238
5.0888702275,-2.19226744187,0.790332700057,0.0800878673745
-3.46383423367,-2.82456031979,0.775431468599,0.95919623237
7.45346130515,7.35314680231,0.97053023714,8.62830459737
11.240756844,5.68085392441,-0.544370994321,10.3374129624
4.02805238279,3.3085610465,1.63072777422,8.11652132736
3.94534792161,0.296268168589,1.33582654276,5.88562969236
-3.08735653957,0.923975290687,0.490925311304,2.02473805736
7.58993899926,8.05168241278,3.27602407985,6.19384642235
1.82723453808,12.6593895349,4.05112284838,10.2729547874
1.6845300769,1.77709665697,1.01622161692,4.06206315235
-0.158174384291,-3.74519622095,1.59132038547,1.48117151735
-5.65087884547,-5.32748909885,-1.03358084599,0.730279882343
9.04641669335,0.510218023242,-0.778482077454,3.95938824734
5.83371223218,6.02792514533,0.366616691088,9.32849661234
11.231007771,3.50563226743,-2.29828454037,9.64760497733
5.15830330981,2.41333938952,2.22681422817,10.1967133423
5.67559884864,3.60104651161,2.93191299671,9.51582170733
9.53289438746,6.6687536337,1.93701176525,11.4449300723
10.0301899263,6.3064607558,0.672110533789,10.5840384373
9.9774854651,0.364167877895,-1.98279069767,7.34314680232
-0.785549436128,-3.70153029109,-0.19740493051,-4.23324809861
4.60675931779,-2.94672711559,-0.487566091855,-3.09444368489
8.70906807171,3.27807605991,-0.977727253197,-2.92563927117
