-20.5473074128,-32.6056577035,-1.54375726744,-33.4020748547
-22.6733869712,-28.4682346983,1.78979845724,-32.7965685085
-17.8294665297,-17.0708116931,2.90335418193,-24.6010621624
-15.6655460882,-13.583388688,2.63690990661,-20.6555558162
-5.81162564662,-11.5259656828,0.720465631293,-17.8300494701
-8.47770520508,-10.8085426776,-0.285978644022,-17.414543124
-7.11378476354,-17.0711196724,-2.49242291934,-19.7490367778
-12.569864322,-9.69369666727,-1.52886719465,-16.4035304317
-7.89594388046,-13.5462736621,-3.27531146997,-17.7780240856
-14.1420234389,-20.3188506569,-4.05175574528,-19.3525177394
-6.94810299738,-16.7814276517,-3.6282000206,-14.1870113933
-4.22418255584,-12.7640046466,-2.50464429592,-9.83150504715
-4.7402621143,-13.7665816414,-2.52108857123,-10.315998701
-5.03634167276,-5.42915863623,-1.73753284655,-2.52049235488
-2.42242123122,-2.99173563106,-0.973977121863,6.29501399126
-5.03850078968,-1.59431262589,-1.49042139718,6.86052033739
1.88541965186,2.63311037929,-2.8968656725,14.0260266835
6.1993400934,7.55053338446,-2.20330994781,20.0515330297
18.6632605349,10.5679563896,-4.51975422313,19.3270393758
14.1971809765,10.8553793948,-7.64619849844,20.3025457219
18.681101418,18.6328024,-7.96264277376,29.8780520681
18.6750218596,18.7502254052,-8.98908704907,34.1135584142
25.7789423011,23.6376484103,-7.44553132439,38.5490647603
24.2828627426,33.2450714155,-4.37197559971,41.8245711065
39.9967831842,40.1324944207,-3.83841987502,59.1300774526
30.2907036257,36.4899174258,-8.81486415034,59.4355837988
23.7646240673,32.937340431,-11.9913084257,45.6310901449
19.5785445088,28.9547634362,-11.407752701,48.816596491
21.6924649503,21.9821864414,-11.4041969763,43.3521028372
23.5463853919,18.3396094465,-11.1306412516,34.4276091833
13.1503058334,19.5170324517,-7.59708552692,30.6131155294
18.464226275,21.6444554569,-6.79352980223,27.8986218756
14.9381467165,17.2818784621,-5.28997407755,21.4941282217
11.382067158,15.2293014672,-4.30641835287,17.2796345678
0.305987599575,20.5267244724,-1.15286262818,17.475140914
2.13990804111,19.1541474776,2.3106930965,12.8406472601
10.6338284827,18.9515704827,4.03424882119,11.9961536063
15.9877489242,1.71899348792,0.597804545871,-3.20834004761
-1.91833063427,5.63641649309,3.97136027055,-7.13283370147
-4.62441019273,2.66383949827,4.55491599524,-10.0773273553
1.22951024881,5.09126250344,4.84847171992,-9.1418210092
-2.50656930965,4.42868550861,7.09202744461,-11.0563146631
-6.78264886811,0.686108513783,7.33558316929,-15.2208083169
-8.40872842657,2.36353151896,7.91913889398,-17.7153019708
-5.77480798503,-4.71904547587,7.41269461866,-22.5597956247
-12.8008875435,-7.6716224707,7.00625034334,-22.7042892785
-7.10696710195,-9.79419946552,5.62980606803,-24.7187829324
-2.34304666041,-8.65677646035,6.29336179271,-23.4332765862
-10.8891262189,-5.61935345517,6.9269175174,-18.9777702401
-9.21520577733,-10.47193045,7.06047324208,-19.102263894
-12.0812853358,-8.68450744483,9.09402896677,-21.6167575478
-7.98736489425,-8.94708443966,10.0375846914,-20.8412512017
-12.6834444527,-9.14966143449,10.2211404161,-23.3557448556
-6.36952401117,-8.17223842931,9.03469614082,-20.9802385094
-11.5056035696,-9.19481542414,7.3382518655,-19.9147321633
-3.40168312809,-6.94739241897,6.76180759019,-13.6892258172
2.56223731345,-5.35996941379,8.88536331487,-5.38371947102
-9.06384224501,-10.9025464086,9.96891903955,-15.3882131249
-12.3499218035,-10.8551234034,4.18247476424,-18.2127067787
-17.7660013619,-16.5977003983,2.50603048892,-20.6872004326
-7.88208092039,-11.5302773931,1.96958621361,-15.2016940865
-14.8581604789,-6.88285438793,4.36314193829,-7.00618774034
-4.76424003731,-12.8254313828,-0.843302337025,-13.2706813942
-8.52031959577,-5.60800837759,0.12025338766,-5.26517504807
-11.5163991542,-1.76058537241,1.60380911234,-1.24966870193
-6.42247871269,-6.39316236724,0.667364837027,-5.1241623558
3.36144172885,-2.99573936206,2.23092056171,-1.82865600966
-2.96463782961,-8.24831635689,0.624476286395,-5.64314966352
-2.30071738807,-8.07089335172,-0.311967988921,-5.02764331739
-13.4367969465,-10.9334703465,0.761587735764,-8.52213697125
-12.432876505,-4.69604734137,3.28514346045,-4.57663062511
-4.60895606345,-6.8686243362,1.72869918513,-4.28112427898
-7.27503562191,-6.57120133103,2.89225490982,-2.47561793284
-6.65111518037,-0.783778325855,3.9458106345,-1.71011158671
3.22280526117,1.91364467932,4.90936635918,0.365394759431
-3.70327429729,-5.94893231551,1.98292208387,-3.55909889443
-0.199353855754,-4.34150931034,1.33647780855,-3.3735925483
0.774566585787,-2.93408630516,0.420033533237,-4.67808620216
-0.251512972674,-0.746663299986,1.67358925792,-2.43257985602
-1.88759253113,-0.76924029482,3.6071449826,-1.97707350989
3.29632791041,-3.92181728964,4.01070070729,-2.05156716375
0.540248351947,-0.164394284471,4.03425643197,-0.0960608176156
-1.15583120651,1.8230287207,4.18781215666,-1.54055447148
4.28808923503,0.140451725874,2.38136788134,-0.635048125343
2.14200967657,-1.42212526895,1.26492360603,1.15045822079
-4.94406988189,1.75529773622,2.16847933071,3.03596456693
-0.170149440357,2.19272074139,1.72203505539,5.06147091307
1.24377100119,-0.0598562534324,1.94559078008,1.9669772592
-0.772308557276,0.227566751739,2.27914650476,-0.437516394661
-0.958388115734,-1.80501024309,3.29270222945,-2.15201004853
3.0355323258,-7.03758723792,1.81625795413,-1.93650370239
1.35945276734,-1.96016423274,2.08981367882,0.909002643747
7.43337320889,-7.04274122757,-0.746630596501,-3.00549101012
-2.18270634958,-7.97531822239,-2.22307487182,-5.51998466398
-6.22878590804,-7.30789521722,-1.05951914713,-1.64447831784
-3.0948654665,-4.83047221205,1.22403657755,-1.85897197171
-0.530945024955,-2.77304920687,1.89759230224,-2.87346562557
-1.44702458342,-6.5256262017,-0.32885197308,-4.06795927943
-5.01310414188,-4.18820319653,1.18470375161,-5.2824529333
-3.60918370034,-2.28078019136,0.718259476287,-4.15694658716
-4.9752632588,-5.41335718619,-0.0981847990279,-5.75144024103
-5.44134281726,-1.88593418101,0.415370925657,-2.77593389489
5.06257762429,4.01148882416,2.71892665034,5.88957245125
11.0264980658,4.48891182934,4.55248237503,10.1050787974
-3.81958149264,2.38633483451,1.60603809971,-0.299414856481
-8.2456610511,-2.75624216032,-3.38040617561,-6.63390851034
-2.13174060955,1.89118084485,-4.33685045092,-3.02840216421
-5.43782016802,-2.20139614998,-4.71329472624,-2.97289581807
-4.70389972648,1.7360268552,-4.25973900155,-1.14738947194
-3.29997928494,-2.35655013963,-5.22618327687,-3.1718831258
9.7239411566,4.52087286555,-3.70262755219,6.11362322034
12.5378615981,-2.34170412928,-5.6190718275,4.44912956647
2.25178203968,3.42571887589,-4.67551610282,4.19463591261
5.35570248122,6.84314188107,-3.11196037813,8.14014225875
4.38962292276,5.12056488624,-4.38840465345,7.29564860488
3.8135433643,3.28798789141,-6.21484892876,4.87115495102
9.21746380584,5.70541089658,-4.11129320408,7.12666129715
7.40138424738,10.1028339018,-1.2277374794,7.38216764329
7.39530468892,4.34025690693,-2.38418175471,3.78767398943
1.84922513046,6.2376799121,-2.47062603003,6.59318033556
-2.436854428,3.42510291727,-3.02707030534,6.6586866817
6.71706601354,6.10252592245,-2.89351458066,7.20419302783
9.47098645508,5.11994892762,-3.13995885598,7.72969937397
3.65490689662,5.67737193279,-4.49640313129,8.78520572011
0.118827338159,-0.965205062032,-6.08284740661,2.01071206624
-6.3872522203,1.69221794314,-4.06929168192,2.61621841238
-5.61333177876,-0.230359051689,-4.55573595724,6.36172475852
10.2805886628,2.34706395348,-3.21218023256,10.7772311047
12.6630050872,8.36282703489,-2.53200218023,12.5755196221
15.1399336488,13.5603993946,-1.61249722464,15.7580323544
17.4268622105,8.15797175427,-1.96299226905,12.1205450867
9.57379077207,7.11554411395,-1.46348731345,8.26305781908
20.5307193337,6.05311647364,0.346017642143,9.70557055141
13.0476478953,8.94068883333,0.915522597737,8.97808328374
10.9945764569,10.578261193,2.21502755333,9.63059601607
9.03150501854,7.8858335527,0.524532508925,9.7131087484
6.72843358016,5.34340591239,0.984037464521,6.36562148073
9.14536214178,10.1409782721,3.04354242011,6.68813421305
2.9122907034,7.81855063176,1.86304737571,8.24064694538
4.82921926502,7.98612299145,1.2425523313,8.56315967771
4.34614782664,3.12369535113,1.7420572869,6.00567241004
0.563076388255,2.73126771082,0.90156224249,3.19818514237
-1.21999505012,1.0188400705,1.60106719809,-1.1593021253
1.81693351149,3.68641243019,1.92057215368,0.30321060703
10.6538620731,1.37398478988,0.450077109273,1.05572333936
2.78079063473,2.99155714957,0.929582064869,2.39823607169
0.867719196351,4.26912950925,2.20908702046,4.02074880402
0.934647757967,6.22670186894,3.55859197606,7.33326153635
2.32157631959,5.94427422863,2.44809693165,5.15577426868
8.10850488121,6.20184658832,3.47760188725,3.57828700101
8.47543344283,0.0994189480007,1.74710684284,3.27079973333
6.77236200444,0.786991307687,2.39661179843,2.27331246566
1.94929056606,0.474563667372,2.35611675403,0.495825197993
0.406219127683,-1.56786397294,0.285621709623,-0.391662069677
-6.5168523107,-1.92029161325,-0.684873334783,-3.05914933735
-11.7099237491,-4.10271925357,-1.95536837919,-4.41663660502
-11.5029951875,-6.86514689388,-1.5458634236,-4.96412387269
-5.21606662585,-3.94757453419,-2.416358468,-5.56161114036
1.00086193578,-2.22000217451,-2.76685351241,-5.05909840803
-1.46220950261,-1.56242981482,-0.437348556812,-3.2365856757
-5.54528094099,-3.27485745513,-0.807843601218,-1.46407294337
-3.46835237937,1.00271490456,-0.108338645623,1.62843978896
1.71857618225,-2.15971273576,-0.768833690028,0.970952521287
-2.21449525613,-1.19214037607,-0.649328734435,0.303465253615
-4.15756669451,-1.18456801638,-0.48982377884,-0.0640220140549
1.87936186711,-1.0169956567,-0.460318823247,-0.0115092817259
-2.81370957128,-1.98942329701,-1.28081386765,-2.9789965494
-1.62678100966,-3.21185093732,-0.961308912059,-3.85648381707
-8.48985244804,0.775721422364,-0.171803956464,-0.0939710847379
-8.84292388642,0.00329378204697,0.747700999129,-1.34145835241
-4.2159953248,-3.11913385826,-1.10279404528,-1.86894562008
-1.01906676318,-2.33156149858,-0.493289089682,-0.69643288775
-0.772138201566,-2.16398913889,1.90621586591,-1.46392015542
-9.59520963995,-2.24641677921,-0.434279178493,-1.48140742309
-7.10828107833,-11.9588444195,-3.0647742229,-10.8388946908
-7.45135251671,-8.08127205983,-0.775269267306,-9.77638195843
-7.19442395509,-3.47369970014,0.52423568829,-4.7138692261
-9.65749539347,-10.4561273405,-1.16625935612,-9.24135649378
-8.69056683185,-9.93855498077,-1.60675440052,-10.6888437614
-18.1736382702,-8.85098262108,-0.277249444925,-10.2763310291
-8.44670970861,-6.1834102614,-0.697744489333,-7.87381829679
-4.709781147,-9.21583790171,-3.21823953374,-8.96130556446
-11.2128525854,-7.61826554202,-2.46873457814,-9.97879283213
-9.24592402376,-6.31069318233,-1.21922962255,-10.3962800998
-5.57899546214,-12.0231208227,-3.48972466696,-14.8837673675
-11.5720669005,-13.735548463,-2.59021971136,-16.0812546351
-10.9651383389,-7.55797610327,-1.49071475577,-14.1987419028
-16.4782097773,-2.95040374359,-0.851209800172,-11.6862291705
-18.6212812157,-9.6628313839,-1.87170484458,-14.0637164382
-8.09435265405,-8.54525902421,-1.31219988898,-12.4912037058
-19.8974240924,-5.42768666453,0.37730506661,-10.1986909735
-15.2204955308,-11.2001143048,-0.243189977797,-11.2861782412
-11.3335669692,-9.21254194515,-1.0636850222,-12.4436655088
-8.75663840757,-7.79496958547,-1.48418006661,-11.1811527765
-3.16970984596,-4.65739722578,-3.37467511101,-7.30864004418
-5.18278128433,-6.98982486609,-3.81517015542,-9.10612731185
3.04414727729,-3.83225250641,-2.76566519982,-2.77361457952
-0.768924161097,-4.04468014672,-1.77616024423,-1.91110184719
-0.551995599479,-0.637107787032,-1.76665528863,0.131410885141
-2.08506703786,-0.479535427348,1.01284966696,1.21392361747
2.92186152376,-2.45196306766,0.702354622554,1.2664363498
6.02879008538,2.67560929203,1.65185957815,1.89894908213
1.585718647,3.95318165172,0.0913645337405,-0.278538185542
1.67264720862,-3.2092459886,-2.15913051066,-2.46602545321
1.42957577023,-3.29167362891,-0.37962555507,-1.91351272088
2.54650433185,-2.07410126923,0.029879400523,-0.810999988555
1.52343289347,-0.50652890954,-0.910615643881,0.761512743775
2.22036145509,-4.73895654986,-0.30111068829,-2.9859745239
0.0672900167083,0.138615809836,1.98839426731,-2.26346179157
5.08421857833,3.03618816952,2.6678992229,2.16905094076
-1.68885286005,0.273760529206,1.1774041785,0.171563673092
-1.11192429844,-0.858667111104,0.57690913409,-1.31592359458
1.93500426318,-3.78109475142,0.156414089683,0.296589137751
-4.0380671752,-1.11352239173,0.945919045278,0.52910187008
-2.20113861358,2.51404996795,2.22542400087,2.06161460241
0.685789948038,-8.89837767236,-0.895071043533,-0.875872665261
0.462718509658,-2.67080531267,0.0344339120602,1.94664006707
3.25964707128,-1.72323295298,0.303938867655,1.9591527994
2.05657563289,-3.3656605933,-0.556556176751,-0.298334468274
3.91350419451,-1.68808823361,0.672948778843,1.37417826406
-11.3095672439,5.65948412607,3.25245373444,5.78669099639
-3.08263868225,-0.0129435142371,1.27195869003,3.12920372871
-1.91571012063,-3.33537115455,1.54146364562,-1.72828353896
-0.438781559009,1.41220120514,1.86096860122,0.864229193372
-3.16185299739,2.82977356482,1.56047355681,3.0667419257
0.565075564227,2.43734592451,1.24997851241,4.30925465803
-3.92799587415,3.2249182842,1.299483468,3.78176739036
-1.17106731254,0.692490643884,1.3989884236,-0.705719877311
1.46586124908,7.25006300357,2.11849337919,4.86679285502
4.3127898107,0.707635363255,1.47799833479,1.61930558735
5.33971837232,-1.43479227705,1.48750329038,1.51181831968
0.846646933936,2.44278008263,0.707008245974,2.52433105201
2.01357549556,2.14035244232,-0.0634867984318,3.40684378434
8.78050405717,8.407924802,1.01601815716,7.32935651667
2.56743261879,5.21549716169,1.97552311276,4.30186924899
1.52436118041,4.53306952138,1.91502806835,2.96438198132
3.67128974203,4.32064188107,1.32453302395,2.74689471365
7.31821830365,4.41821424075,2.06403797954,5.84940744598
7.83514686527,8.76578660044,0.713542935135,5.61192017831
4.88207542689,9.48335896012,-0.156952109272,5.90443291064
5.5290039885,6.95093131981,-1.35744715368,7.09694564297
6.09593255012,5.8385036795,-0.117942198083,6.8894583753
7.43286111175,4.84607603919,-1.71843724249,6.83197110763
11.3297896734,3.60364839887,-0.998932286895,2.25448383996
1.82671823498,7.94122075856,0.410572668699,5.72699657229
1.6736467966,3.05879311825,-0.919922375706,4.79950930462
7.89057535822,6.52636547793,0.049582579888,5.23202203695
9.40750391984,6.18393783762,0.0790875354833,8.66453476927
5.21443248146,0.851510197306,-1.50140750892,2.2370475016
5.48136104307,-2.47091744301,-1.85190255333,-2.54043976607
2.50828960469,0.486654916676,-0.502397597735,2.16207296626
1.05521816631,-0.225772723632,-1.15289264214,1.61458569859
0.482146727929,-0.298200363948,-3.13338768655,1.95709843092
4.29907528955,1.15937199574,-1.89388273095,2.40961116325
4.57600385117,2.84694435542,0.125622224641,0.50212389558
1.62293241279,5.58451671511,4.21512718024,1.38463662791
13.4201417151,13.8145276163,4.49757267442,18.3926853198
5.24988972945,8.90456950422,0.0382186756051,10.102173051
-8.00036225621,5.60461139215,-1.3711353232,5.22166078214
-4.55061424189,2.14465328008,-2.06048932201,5.31114851332
4.08913377244,-0.655304831987,-0.369843320823,2.5106362445
6.39888178677,-0.745262944056,-1.52919731963,-0.61987602431
5.4286298011,-0.415221056122,-1.79855131844,-1.58038829312
0.808377815425,-0.845179168191,-0.907905317252,-1.21090056194
3.77812582975,0.554862719746,-0.977259316061,-0.271412830755
0.157873844084,-0.405095392325,0.673386685128,-2.87192509957
-0.722378141589,-4.34505350439,-1.31596731368,-3.23243736839
-4.02263012726,-4.77501161646,-2.63532131249,-3.2729496372
1.30711788707,-1.26496972853,-2.1246753113,-3.43346190602
-1.8131340986,-8.44492784059,-2.15402931011,-9.60397417483
-3.30338608427,-6.79488595266,-0.50338330892,-7.91448644365
-3.26363806994,-3.39484406473,-0.41273730773,-6.90499871246
-3.50389005562,-10.5048021768,-3.52209130654,-11.8455109813
-4.92414204129,-6.33476028886,-1.83144530535,-11.4460232501
-5.67439402696,-6.24471840093,-3.08079930416,-10.9665355189
-2.26464601263,-4.954676513,-2.79015330297,-8.72704778772
-4.3148979983,-4.06463462507,-2.63950730178,-4.99756005654
-2.87514998397,-0.854592737134,-1.42886130059,-3.59807232535
-2.19540196964,2.6754491508,-0.0282152993968,-4.91858459417
-1.60565395531,1.84549103873,1.64243070179,-1.56909686298
2.14409405901,-1.44446707334,3.52307670298,0.820390868201
7.31384207334,1.5755748146,4.19372270417,1.37987859939
1.42359008767,5.12561670253,4.61436870536,2.04936633057
1.613338102,1.38565859046,1.90501470655,0.458854061755
6.42308611633,4.93570047839,1.67566070774,2.37834179294
-1.38716586934,4.01574236633,2.92630670893,2.83782952412
2.15258214499,1.10578425426,0.776952710125,0.53731725531
6.81233015932,4.65582614219,3.16759871132,4.0168049865
5.68207817365,7.62586803013,3.29824471251,9.15629271768
9.85182618798,1.03590991806,-1.0111092863,3.27578044886
