-7.49619549418,-2.54439680232,1.31395712209,-6.00925508721
1.0949909014,2.08597509615,1.65192507095,-0.0642274480433
4.96617729698,1.7763469946,2.45989301982,1.98080019112
1.97736369256,3.52671889307,4.78786096868,0.0758278302947
-2.32144991187,3.11709079153,5.03582891755,-0.479144530536
4.11973648371,3.45746268999,2.66379686641,-0.944116891367
-0.339077120712,3.52783458845,1.55176481528,-2.8390892522
2.10210927487,0.698206486915,0.879732764142,-2.37406161303
0.0332956704406,-4.50142161462,-0.122299286995,-4.93903397386
-4.31551793398,-3.89104971616,1.48566866187,-4.73400633469
-4.2643315384,-4.4206778177,0.413636610734,-4.83897869552
-0.863145142823,-2.87030591924,1.7116045596,-0.993951056354
5.74804125275,-2.90993402078,-0.140427491535,-1.56892341719
1.27922764833,-1.57956212232,1.11754045733,-5.35389577802
-1.81958595609,0.390809776149,2.30550840619,-1.67886813885
2.68160043949,-2.16881832539,1.25347635506,-3.60384049968
2.42278683506,-3.18844642693,0.161444303923,-4.10881286051
-0.156026769357,1.31192547153,1.14941225279,-2.70378522135
-1.00484037378,6.70229736999,2.30738020165,3.78124241782
2.1763460218,2.84266926846,2.49534815052,0.926270056994
-1.30246758262,-1.95695883308,1.33331609938,-2.71870230384
-2.52128118704,-1.32658693462,-0.368715951754,-0.163674664669
-3.29009479147,-4.37621503616,-0.120748002888,-4.2786470255
-5.24890839589,-4.8358431377,0.977219945977,-6.79361938633
1.84227799969,-5.00547123923,1.07518789484,-3.81859174716
-4.40653560474,-5.33509934077,0.243155843707,-4.26356410799
-2.90534920916,-5.88472744231,-0.26887620743,-4.19853646883
1.59583718642,-1.70435554385,-0.150908258565,0.676491170343
-0.0729764180032,0.156016354609,-0.9329403097,2.29151880951
-1.78179002243,1.91638825307,-1.84497236084,1.64654644868
-1.08060362685,1.78676015154,0.52299558803,5.67157408785
-4.75941723127,-0.602867950005,1.73096353689,4.10660172702
-1.86823083569,1.46750394846,1.46893148576,4.15162936619
-1.39704444012,4.84787584692,1.26689943462,6.30665700535
-0.645858044536,5.05824774538,2.94486738349,8.00168464452
7.11532835104,9.84861964385,1.60283533235,11.7167122837
1.31651474662,7.7089915423,2.21080328122,8.63173992286
0.0277011421967,8.22936344077,2.77877123008,6.58676756203
3.80888753777,4.58973533923,0.946739178948,6.6117952012
6.34007393335,7.79010723769,3.98470712781,9.73682284037
7.83126032893,6.17047913615,3.02267507668,9.32185047954
14.5424467245,5.35085103461,1.80064302554,10.1268781187
15.0236331201,7.93122293308,1.88861097441,13.7519057579
11.4248195157,6.03159483154,0.39657892327,11.136933397
11.6160059112,1.66196673,-0.385453127865,7.67196103621
5.74719230682,3.03233862846,0.732514821,7.24698867538
6.50837870239,4.27271052692,-0.809517230135,4.59201631455
9.11956509797,2.46308242538,-3.35154928127,5.33704395372
11.4507514936,-0.586545676153,-3.1935813324,3.32207159289
-2.06806211087,-2.09617377769,-4.50561338354,-0.922900767946
-1.5268757153,-6.42580187923,-5.89764543468,-3.88787312878
-1.20568931972,-8.11542998077,-4.81967748581,-6.25284548961
-1.88450292414,-5.94505808231,-5.37170953695,-4.19781785044
2.07668347144,-2.62468618384,-3.34374158808,-3.16279021127
3.33786986701,-6.33431428538,-4.36577363922,-3.8077625721
4.08905626259,-6.08394238693,-5.70780569035,-4.61273493293
-5.26975734183,-5.78357048846,-5.65983774149,-7.11770729376
-7.98857094625,-2.84319859,-3.71186979262,-4.6726796546
-3.71738455067,-3.04282669154,-2.68390184376,-4.87765201543
-6.5261981551,-4.59245479307,-3.10593389489,-6.57262437626
-7.65501175952,-5.42208289462,-2.91796594603,-4.39759673709
1.62617463606,-2.52171099615,-2.17999799716,-3.52256909792
0.607361031634,-4.04133909769,-3.2320300483,-7.34754145875
-0.431452572786,-2.71096719923,-4.25406209944,-4.01251381958
2.16973382279,-3.55059530077,-2.28609415057,-2.88748618042
-3.34907978163,-1.76022340231,0.311873798297,-2.31245854125
-3.53789338605,-4.27985150384,0.0398417471588,-1.18743090208
-2.16670699048,-2.45947960538,-1.09219030398,0.557596737091
-4.0555205949,0.120892293082,-0.374222355111,0.0926243762606
-1.81433419932,0.24126419154,-0.776254406246,3.30765201543
-5.74314780374,-2.14836391,-5.17828645738,1.8826796546
-5.22196140817,-3.09799201154,-5.76031850852,-3.16229270623
-5.90077501259,-2.15762011307,-3.97235055965,-3.67726506707
-5.08958861701,-2.52724821461,-2.53438261079,-3.2022374279
-11.1184022214,-1.33687631615,-0.0364146619231,-2.39720978873
-9.45721582586,-1.61650441769,-0.548446713057,-2.55218214956
-6.29602943028,-1.32613251923,-0.920478764192,-2.76715451039
-5.6348430347,2.71423937923,-1.39251081533,0.807873128779
-3.03365663912,7.2746112777,-0.874542866464,4.67290076795
-3.38247024354,2.92498317616,-0.826574917599,4.81792840712
-7.91128384797,1.63535507462,0.381393031266,0.372956046283
-3.57009745239,3.54572697308,0.939360980132,1.88798368545
-8.78891105681,7.41609887154,0.787328928996,4.46301132462
-9.18772466123,5.47647077001,-0.124703122141,0.738038963791
-7.05653826566,1.32684266847,0.593264826724,-2.77693339704
-6.71535187008,4.70721456693,0.80123277559,1.54809424213
-3.8441654745,5.99758646539,0.909200724454,2.4831218813
-1.93297907892,5.79795836385,0.0671686733203,3.06814952046
-6.11179268335,0.778330262314,-1.34486337782,-2.38682284037
-6.90060628777,0.968702160775,1.76310457105,-0.0817952011985
-4.90941989219,-2.87092594076,0.221072519913,-4.99676756203
-4.04823349661,-2.4605540423,-1.40095953122,-2.95173992286
-1.60704710104,-1.09018214384,-0.912991582358,1.04328771631
1.04413929454,-1.66981024538,-0.375023633493,1.71831535548
4.09532569012,1.25056165308,1.82294431537,2.48334299465
3.3865120857,2.44093355154,0.0609122642363,3.06837063381
4.66769848128,1.57130545001,-2.3511197869,1.86339827298
12.3388848769,3.52167734847,-1.70315183803,3.82842591215
10.5400712724,4.11204924693,-1.88518388917,3.45345355132
6.48125766801,-2.60757885461,-3.4672159403,-1.61151880951
10.9124440636,-2.28720695615,-1.53924799144,-0.62649117034
3.03363045916,-2.94683505768,-0.351280042576,-0.0414635311718
5.29481685474,-1.95646315922,-0.62331209371,0.313564107995
-1.22399674968,-4.27609126076,-2.47534414484,-5.85140825284
-0.272810354101,-4.3557193623,-0.927376195979,-6.13638061367
3.03837604147,-2.22534746384,-0.949408247116,-4.0413529745
2.90956243705,-6.26497556537,-2.71144029825,-7.47632533533
-2.52925116737,-4.82460366691,-1.46347234939,-4.86129769616
-2.4380647718,-4.17423176845,-1.48550440052,-3.53627005699
-2.24687837621,-9.68385986999,-1.14753645166,-6.93124241782
-6.50569198064,-5.16348797153,1.16043149721,-7.50621477865
-1.26450558506,-2.07311607306,0.558399446074,-4.74118713949
-5.91331918948,1.1572558254,0.966367394936,-0.396159500318
-7.35213279391,0.397627723854,0.274335343802,0.518868138852
-4.04094639833,-2.00200037768,0.362303292666,0.163895778021
1.42023999725,2.53837152078,4.50027124153,3.29892341719
1.25142639283,5.82874341924,6.5182391904,4.55395105636
4.01261278841,3.2191153177,1.71620713926,-0.251021304473
6.20379918398,5.73948721616,2.98417508812,4.3340063347
6.95498557956,5.00985911463,2.99214303699,3.90903397386
-0.70382802486,0.970231013089,2.43011098586,0.364061613032
1.58735837071,3.25060291155,3.57807893472,3.4890892522
-2.59145523371,-1.33902518999,3.44604688359,-0.465883108629
-0.140268838128,0.631346708473,4.02401483245,-1.51085546946
2.88091755745,-3.71828139306,2.19198278131,-4.72582783029
6.06210395303,1.9920905054,4.71995073018,3.31919980888
12.0632903486,6.37246240386,6.15791867904,8.20422744804
9.74447674418,1.84283430232,4.30588662791,4.84925508721
-0.151239098836,-4.25554505813,2.56323401162,4.84120639535
-1.44758277444,-1.80918435839,5.01130193073,5.81900235762
-5.92392645005,-4.63282365866,4.64936984984,2.3867983199
-5.56027012566,-1.76646295893,4.91743776895,3.27459428218
-8.53661380127,0.70989774081,5.16550568806,2.42239024446
-6.05295747688,2.68625844054,4.73357360717,3.97018620674
-0.839301152489,-7.33738085972,1.44164152627,0.0979821690144
-4.8456448281,-8.29102015999,-0.0302905546177,-2.63422186871
-0.171988503709,-5.93465946025,1.57777736449,-1.23642590643
1.73166782068,-6.47829876052,1.2358452836,0.031370055849
-4.61467585493,-7.25193806078,2.32391320271,-2.95083398187
-1.94101953053,-5.36557736105,1.90198112181,-1.39303801959
-0.927363206145,-6.15921666132,0.910049040924,-3.61524205732
0.526293118248,-3.71285596158,0.978116960032,-3.12744609504
-5.00005055736,-4.86649526185,-1.93381512086,-4.67965013276
-7.14639423297,-4.96013456212,-2.44574720175,-6.36185417048
-2.00273790858,-4.86377386238,-0.777679282643,-5.1140582082
-1.77908158419,-9.07741316265,-2.33961136353,-5.85626224593
-0.455425259795,-9.33105246291,-1.92154344443,-7.69846628365
-4.2617689354,-4.16469176317,-1.83347552532,-5.54067032137
-4.18811261102,-3.83833106344,-2.44540760621,-2.37287435909
-1.32445628662,-5.10197036371,-2.1573396871,0.544921603185
0.239200037766,0.364390336024,-1.59927176799,0.402717565465
-10.5971436378,-3.39924896424,-1.87120384888,-3.04948647226
-4.85348731345,-3.9228882645,-3.46313592978,-4.26169050998
-5.72983098906,-4.27652756477,-1.69506801067,-8.8238945477
-7.35617466467,-7.99016686503,-2.70700009156,-8.34609858542
-10.3725183403,-6.5738061653,-3.82893217245,-7.90830262315
-10.1988620159,-11.2574454656,-3.65086425334,-8.72050666087
-7.6952056915,-2.24108476583,-1.31279633424,-4.43271069859
-3.6915493671,2.9352759339,0.315271584872,-2.42491473631
-6.14789304271,3.61163663364,0.513339503981,-0.647118774034
-5.23423671832,6.75799733337,2.88140742309,2.59067718825
-7.29058039393,8.8643580331,4.1094753422,2.14847315052
-0.226924069539,9.06071873284,3.54754326131,3.6862691128
0.806732254849,8.86707943257,3.58561118041,4.73406507508
-2.80961142076,5.34344013231,2.78367909952,3.98186103736
-1.11595509637,5.80980083204,2.87174701863,1.24965699963
-1.43229877198,5.12616153178,3.03981493774,-0.102547038088
-1.96864244758,8.08252223151,3.70788285685,1.01524892419
2.39501387681,1.29888293125,1.06595077596,-0.576955113533
-6.6813297988,1.53524363098,-1.81598130494,-3.93915915125
5.93232652559,2.10160433071,-2.99791338583,0.0786368110257
6.75598284998,1.73796503045,-2.50984546672,0.336432773302
2.12963917437,4.29432573018,0.0482224523894,-0.0557712644186
2.31329549876,4.71068642992,0.876290371498,1.32202469786
6.01695182315,3.77704712965,0.764358290606,1.11982066014
4.79060814754,2.67340782939,2.37242620971,1.99761662242
-5.93573552807,0.359768529121,-0.0695058711772,-2.36458741531
-5.08207920368,0.616129228853,-1.66143795207,-2.88679145303
0.251577120715,3.84248992859,-0.703370032961,-0.698995490753
-0.544766554893,-3.34114937168,-1.22530211385,-4.73119952847
-12.6411102305,-3.86478867194,-0.177234194745,-4.45340356619
-11.1174539061,-0.188427972207,-0.0891662756367,-2.95560760392
-6.31379758172,-2.03206727247,-2.37109835653,-1.24781164164
-1.64014125733,-1.73570657274,-4.29303043742,-1.03001567936
0.123515067062,-1.589345873,-5.81496251831,-0.902219717083
-4.77282860854,-1.82298517327,-3.9468945992,1.5255762452
-1.74917228416,0.513375526461,-3.9888266801,-1.29662779253
-1.52551595976,-2.0702637738,-4.73075876099,-3.64883183025
-3.27185963537,0.246096925934,-1.92269084188,-3.28103586797
-3.91820331098,-1.79754237433,-1.67462292277,-4.72323990569
7.37545301341,-6.2811816746,-3.48655500366,-7.36544394341
12.1991093378,-1.37482097486,-3.71848708455,-1.91764798114
16.1827656622,2.68153972487,-1.57041916545,4.02014798114
15.9564219866,7.9879004246,-1.37235124634,8.03794394342
22.350078311,7.64426112434,0.0257166727697,7.8457399057
13.7037346354,3.23062182407,-1.49621540812,3.44353586797
16.1373909598,5.56698252381,-2.76814748901,6.18133183025
10.2610472841,7.65334322354,-3.42007956991,5.78912779253
12.4247036085,7.83970392328,-3.7820116508,5.71692375481
8.53835993293,9.37606462301,-3.89394373169,7.32471971709
2.68201625732,11.5124253227,-1.55587581258,8.29251567936
4.54567258171,11.9887860225,0.0121921065293,8.89031164164
6.5493289061,10.8851467222,-0.219739974362,6.53810760392
8.47298523049,7.29150742195,0.898327944746,4.1359035662
11.5866415549,8.35786812168,0.776395863853,4.48369952848
5.93029787927,4.00422882142,-0.0955362170371,2.29149549075
5.05395420367,3.71058952115,-1.19746829793,1.89929145303
12.9476105281,7.96695022089,-0.69940037882,6.20708741531
8.10126685245,8.82331092062,0.838667540287,7.45488337759
9.84492317684,11.8496716204,0.716735459395,7.26267933987
8.90857950123,5.06603232009,-1.5651966215,2.01047530214
10.2522358256,1.79239301982,-1.49712870239,-0.0817287355767
4.23589215001,1.82875371956,-0.98906078328,-1.0039327733
12.5095484744,3.22511441929,-1.62099286417,1.35386318898
9.35320479879,0.551475119024,2.17707505494,1.30165915126
5.68686112318,3.24783581876,6.69514297404,4.10945511353
10.7005174476,4.3541965185,4.67321089315,4.32725107581
15.414173772,8.07055721823,2.03127881226,8.16504703809
9.26783009636,7.90691791796,1.84934673137,10.1228430004
11.5314864208,10.6832786177,2.98741465048,11.4606389626
14.2551427451,6.02963931743,1.04548256959,5.72843492492
7.81879906953,5.25600001717,1.28355048869,3.7762308872
6.92245539392,10.5223607169,2.2216184078,7.08402684948
4.82611171831,7.37872141664,4.00968632691,5.33182281176
0.759768042702,0.995082116373,2.25775424602,2.03961877404
-3.98657563291,2.24144281611,0.785822165126,0.167414736316
-5.52291930851,3.25780351584,-0.426109915765,1.03521069859
2.39073701588,0.944164215576,-1.50804199666,0.583006660872
6.48439334027,-0.00947508469108,-1.74997407755,-2.05919737685
9.42804966466,1.87688561504,-0.88190615844,3.78859858543
8.94170598905,1.55324631478,0.456161760671,4.7563945477
5.00536231344,3.70960701451,2.37422967978,6.60419050998
8.89901863783,0.975967714247,-0.337702401113,5.46198647226
13.4626749622,1.12232841398,0.290365517994,6.11978243454
13.5063312866,1.68868911371,1.3384334371,6.74757839682
14.529987611,2.39504981345,-0.0734986437892,9.1253743591
19.1336439354,2.09141051318,-0.455430724682,11.1531703214
12.8573002598,4.71777121292,-0.167362805572,13.4209662837
13.1209565842,4.77413191265,-0.759294886464,13.8887622459
9.03461290857,-1.47950738762,1.44877303264,10.8865582082
5.88826923296,-0.683146687879,2.02684095175,6.36435417049
4.99192555735,-3.57678598815,-0.635091129139,2.31215013276
1.61558188174,-8.01042528841,-3.11702321003,-2.71005390496
-1.74076179387,-9.07406458868,-1.01895529092,-5.42225794268
-9.21710546947,-9.84770388894,-0.820887371816,-6.8344619804
-12.2834491451,-13.7513431892,-3.95281945271,-11.6466660181
-20.8697928207,-14.6749824895,-3.0347515336,-17.3788700558
-24.5361364963,-17.4986217897,-2.86668361449,-22.3210740936
-25.4024801719,-19.50226109,-3.08861569538,-20.7932781313
-35.8588238475,-18.9759003903,-0.120547776274,-19.205482169
-31.9251675231,-15.7295396905,1.55752014283,-18.5876862067
-23.4815111987,-11.5331789908,1.75558806194,-15.9598902445
-32.0578548744,-9.01681829107,1.36365598105,-13.5820942822
-28.93419855,-6.55045759133,3.53172390016,-8.3542983199
-25.1505422256,-4.7940968916,6.69979181927,-5.49650235762
-26.5368859012,-2.88773619186,7.94785973837,-3.80870639534
3.09416787792,3.8082630814,4.76160973837,0.516340843022
6.75186306881,4.00354141871,5.94442641572,2.6070616073
-0.100441740284,5.29881975601,6.89724309307,3.66778237159
5.16725345061,3.40409809331,6.34005977041,4.05850313587
4.21494864151,5.81937643061,6.60287644776,4.59922390015
5.21264383241,1.66465476791,3.20569312511,2.12994466444
7.86033902331,2.75993310521,0.408509802459,2.07066542872
-0.621965785791,-3.34478855749,0.651326479807,-4.958613807
-5.34427059489,-8.21951022019,-0.625856842842,-11.1578930427
-2.85657540399,-9.84423188289,-2.97304016549,-10.7971722784
-1.29888021309,-14.7689535456,-5.10022348815,-15.4064515141
-10.3111850222,-13.6436752083,-4.3774068108,-15.9857307499
-10.4834898313,-12.548396871,-3.49459013345,-17.0450099856
-6.0657946404,-14.3631185337,-3.8917734561,-13.3642892213
-7.81809944949,-13.0478401964,-5.63895677875,-12.643568457
-10.8704042586,-10.4925618591,-1.1961401014,-10.6428476927
-6.5627090677,-5.03728352179,0.276676575944,-6.14212692845
-1.0950138768,-1.17200518448,0.589493253294,0.0585938358363
1.3226813141,-1.68672684718,0.992309930642,0.589314600118
-2.979623495,-0.25144850988,-0.594873392009,0.970035364402
-4.0619283041,0.323829827419,-0.622056714661,1.28075612868
0.515766886794,3.94910816472,-0.449240037313,4.79147689297
1.6934620777,5.08438650202,-1.45642335996,6.61219765725
1.86115726859,2.04966483932,0.286393317385,4.59291842153
-2.91114754051,-0.985056823378,-1.30079000527,2.23363918582
0.716547650394,-3.89977848607,-2.95797332792,-2.0956400499
-7.33575715871,-2.21450014877,-3.69515665057,-3.33491928562
-2.58806196781,-0.719221811476,-2.42233997322,-1.11419852133
-0.54036677691,0.266056525827,0.930476704127,2.65652224295
3.22732841399,-6.70866513687,-2.67670661853,-3.21275699277
4.51502360489,-15.2233867996,-7.68388994118,-9.44203622848
6.40271879579,-14.8881084623,-4.11107326383,-7.3313154642
0.580413986689,-11.652830125,-2.85825658648,-9.94059469992
-6.08189082242,-13.0975517877,-3.91543990913,-15.1298739356
-15.1541956315,-8.40227345037,-2.39262323178,-12.7591531713
-7.93650044062,-7.26699511307,-2.00980655443,-9.83843240707
-4.48880524972,-4.05171677576,-0.606989877086,-4.95771164278
2.51888994118,-0.576438438467,-0.294173199736,-1.5269908785
-0.103414867917,-0.671160101167,-1.24135652239,0.273729885783
5.49428032298,-0.0858817638655,-0.568539845039,2.20445065007
2.11197551388,-1.54060342656,-0.505723167689,-1.40482858565
5.13967070478,1.54467491074,-2.13290649034,-1.10410782137
8.43736589568,4.86995324804,-2.85008981299,2.09661294292
5.83506108657,1.76523158534,-4.26727313565,1.9073337072
9.63275627747,2.82050992264,-3.5544564583,2.60805447148
4.50045146837,-0.484211740059,-3.17163978095,2.48877523576
5.80814665927,4.07106659724,-4.2488231036,2.94949600005
-5.28415814983,6.64634493454,-1.92600642625,2.26021676433
-0.116462958929,-3.45837672816,-2.9131897489,-1.90906247139
-3.22876776803,-5.04309839086,-2.98037307155,-5.3183417071
3.26892742287,-4.61782005356,0.502443605794,-5.34762094282
-5.97337738623,-4.91254171625,-0.0147397168566,-5.85690017854
-9.78568219533,-4.41726337895,-0.101923039509,-5.93617941425
-8.40798700444,-4.42198504166,0.59089363784,-3.77545864997
-4.89029181354,-1.08670670435,3.60371031519,2.26526211431
0.847403377364,3.69857163295,5.72652699254,7.7559828786
-2.51490143174,7.38384997025,5.83934366989,9.10670364288
7.82279375916,8.92912830755,5.65216034723,11.0574244072
1.11048895006,11.6144066448,6.10497702458,13.7281451714
5.24818414096,13.5596849822,5.38779370193,16.9988659357
6.85587933186,10.6949633195,2.30061037928,9.92958670001
7.58357452276,12.2402416568,0.683427056629,11.3403074643
11.0612697137,9.66551999405,1.33624373398,10.4610282286
11.7889649046,8.42079833135,2.68906041133,12.5517489929
6.56666009546,9.93607666866,2.11187708867,13.0524697571
0.204355286351,10.411355006,1.90469376602,10.8731905214
3.82205047725,11.9066333433,3.13751044337,11.9339112857
-3.16025433185,7.34191168056,2.73032712072,7.74463204999
-5.21255914095,3.09719001786,1.45314379807,2.20535281428
-0.27486395005,2.61246835516,0.285960475418,2.86607357856
-1.64716875915,2.42774669246,0.308777152766,1.42679434284
-0.299473568255,4.93302502976,2.18159383011,6.36751510713
-5.22177837735,9.55830336706,3.05441050746,6.89823587141
-4.69408318646,10.5935817044,3.61722718481,6.70895663569
-3.18638799556,10.3188600417,3.52004386216,8.40967739998
-2.65869280466,8.84413837896,3.45286053951,6.66039816426
0.969002386242,11.2794167163,3.40567721686,9.04111892854
2.74669757714,11.7346950536,2.43849389421,8.82183969283
10.784392768,11.7799733909,2.55131057155,10.1125604571
0.602087958938,6.74525172817,0.314127248903,6.05328122139
1.37978314984,5.38053006547,0.066943926251,5.32400198567
-1.58252165926,9.20580840277,0.1797606036,6.83472274996
-3.82482646836,7.08108674007,0.132577280947,3.62544351424
-3.72713127746,3.17636507737,0.485393958297,1.46616427852
-2.16943608657,6.37164341467,2.29821063564,4.02688504281
-2.89174089567,3.59692175197,1.31102731299,4.11760580709
1.16595429523,3.11220008927,-1.26615600966,1.08832657138
0.323649486134,1.49747842657,-0.39333933231,-1.11095266434
-2.31865532297,4.72275676387,0.679477345038,3.72976809994
1.48903986793,2.23803510117,-1.48770597761,4.05048886422
2.88673505883,4.38331343848,-0.484889300264,5.42120962851
11.7544302497,9.23859177577,-1.60207262291,8.85193039279
2.82212544063,5.10387011307,-2.76925594557,9.15265115707
2.40982063153,7.17914845037,-0.116439268217,9.16337192136
9.05751582242,4.58442678768,-0.783622590869,8.46409268564
8.33521101332,7.19970512498,1.39919408648,6.83481344992
10.3829062042,12.7049834623,2.40201076383,9.70553421421
8.27060139512,12.8402617996,4.17482744118,10.6162549785
9.19829658602,13.4355401369,4.36764411853,10.2669757428
6.05599177692,12.6108184742,2.96046079587,8.84769650706
4.73368696782,11.1660968115,2.28327747322,11.1984172713
6.31138215872,7.34137514878,-1.09390584943,7.74913803562
6.85907734961,8.81665348608,0.678910827919,9.04985879991
2.77677254051,10.0419318234,2.12172750527,10.0905795642
4.15446773142,2.80721016068,1.16454418262,3.44130032847
4.81216292231,0.482488497986,-0.892639140036,-0.457978907245
2.58985811321,-2.31223316471,-4.06982246269,-1.14725814296
-6.42244669589,-5.64695482741,-4.76700578534,-5.95653737868
-11.504751505,-11.8516764901,-4.94418910799,-10.5058166144
-0.137056314092,-10.0863981528,-4.48137243064,-8.77509585011
-6.85936112319,-12.6811198155,-2.75855575329,-8.29437508583
-5.84166593229,-9.17584147821,0.594260924056,-9.38365432154
-4.26397074139,-8.52056314091,0.747077601403,-8.68293355726
-7.78627555049,-9.32528480361,1.98989427875,-5.79221279298
-4.7685803596,-9.84000646631,1.4327109561,-6.1614920287
-3.8208851687,-7.76472812901,0.91552763345,-6.24077126441
4.3268100222,-4.82944979171,-0.331655689202,-4.10005050013
-3.9754947869,-6.4241714544,-1.38883901185,-8.51932973585
-3.627799596,-4.09889311711,0.013977665496,-4.43860897156
0.159895594901,-5.57361477981,1.31679434284,-5.61788820728
-0.9624092142,-9.11833644251,-1.01038897981,-10.007167443
2.2652859767,-10.9530581052,-1.43757230246,-12.0564466787
-2.32701883241,-11.1577797679,-0.0547556251095,-12.2957259144
-5.2393236415,-17.0125014306,-1.29193894776,-16.5250051501
-2.75162845061,-19.5572230933,-2.49912227041,-17.5242843859
-3.52393325971,-16.701944756,-2.02630559306,-17.7635636216
-7.28623806881,-17.9066664187,-3.73348891572,-18.3328428573
-16.6385428779,-16.8113880814,-4.98067223837,-18.542122093
-11.5457957849,-19.2293059593,-1.43949127907,-15.0157521802
-11.0665928001,-18.6322905603,-1.05552660342,-14.2622204038
-11.5273898153,-16.4952751614,-1.66156192776,-13.4086886273
-4.63818683047,-11.1582597624,-0.567597252109,-9.57515685085
-2.13898384567,-9.62124436344,-0.113632576455,-10.7716250744
-8.23978086087,-6.61422896448,0.9103320992,-9.66809329793
-7.35057787607,1.98278643449,4.18429677485,-1.85456152147
-4.12137489127,4.65980183346,6.34826145051,2.04897025499
-5.19217190647,5.81681723242,5.68222612616,2.10250203145
-2.65296892167,7.66383263139,6.55619080182,9.42603380791
5.42623406314,11.0608480304,8.01015547747,14.9095655844
4.16543704794,9.77786342932,7.02412015313,11.1230973608
4.48464003274,6.03487882828,5.08808482878,3.99662913729
3.80384301754,3.93189422725,0.902049504437,0.320160913752
6.85304600234,6.42890962621,0.906014180093,1.22369269021
2.63224898714,5.32592502518,2.26997885575,-0.212775533328
4.07145197194,5.45294042414,4.1539435314,-1.16924375687
-5.81934504326,3.65995582311,1.89790820706,-3.88571198041
-2.21014205845,1.39697122208,0.641872882712,-5.77218020395
1.57906092635,4.13398662104,1.33583755836,-3.18864842748
-0.471736088854,4.35100202,2.23980223402,-2.03511665102
2.11746689595,1.97801741897,-0.016233090324,-3.26158487456
4.24666988075,4.13503281794,-2.34226841467,0.081946901897
5.26587286555,1.7420482169,-2.36830373902,-1.44452132164
4.91507585035,6.62906361587,0.635660936639,0.399010454816
4.00427883515,9.21607901483,0.319625612294,3.73254223128
6.45348181995,2.7930944138,-0.276409712051,-1.26392599226
11.6726848048,0.910109812765,-0.232445036396,-1.3803942158
8.24188778955,2.48712521173,0.281519639257,-0.12686243934
9.83109077435,7.87414061069,0.815484314913,3.75666933712
10.0502937592,3.17115600966,-2.37055100943,4.86020111358
15.489496744,3.85817140862,-1.52658633378,7.46373289004
10.1086997288,3.75518680759,0.687378341876,5.4372646665
4.66790271356,3.01220220656,-1.71865698247,2.92079644296
13.2371056984,3.96921760552,-2.54469230681,6.35432821942
3.76630868316,-2.25376699552,-2.99072763116,-0.362140004117
7.53551166796,-4.71675159655,-3.6867629555,-2.44860822766
0.234714652765,-2.16973619759,-1.09279827985,-1.9950764512
3.50391763756,-3.76272079862,-2.8288336042,0.228455325263
-0.866879377634,-1.02570539965,-2.29486892854,4.69198710172
2.61232360717,0.0613099993097,-2.20090425289,6.23551887819
10.201526592,2.26832539828,-1.75693957723,7.27905065465
5.00072957677,5.12534079724,0.887025098424,5.8825824311
1.76993256157,5.09235619621,-0.119010225922,3.79611420757
1.48913554637,5.73937159518,1.02495444973,4.66964598403
0.308338531173,1.61638699414,3.70891912539,2.11317776049
-7.12245848402,2.8634023931,1.56288380104,3.55670953695
-3.53325549922,7.60041779207,3.1968484767,2.96024131341
0.0259474855775,8.14743319104,2.08081315235,6.50377308987
-3.06484952962,7.53444859,2.66477782801,6.31730486633
-4.15564654482,2.97146398897,1.56874250366,0.620836642791
-0.656443560019,2.55847938793,-1.60729282068,2.08436841925
-0.0472405752189,2.30549478689,1.72667185497,2.69790019571
0.0319624095828,1.43251018586,0.360636530626,0.99143197217
2.93116539438,3.14952558483,-0.995398793719,1.96496374863
-6.62963162082,0.0365409837905,-1.86143411806,-0.661504474907
-6.42042863601,-2.00644361724,-2.21746944241,-2.61797269845
-6.34122565121,-4.11942821828,-7.13350476676,-3.28444092199
-1.50202266641,-5.17241281931,-6.7795400911,-3.98090914553
-6.21281968161,-5.98539742034,-4.67557541545,-5.17737736907
-6.31361669681,-8.11838202138,-5.30161073979,-6.33384559261
-8.60441371201,-8.79136662241,-5.78764606414,-3.73031381615
-13.1152107272,-6.42435122345,-3.48368138848,-1.52678203969
-9.65600774241,-4.15733582448,-2.02971671283,-1.69325026322
-6.11680475761,-2.73032042552,-2.34575203717,-0.409718486762
-6.30760177281,-2.91330502655,0.948212638481,2.2138132897
-6.458398788,-1.33628962759,1.32217731414,2.91734506616
-10.0691958032,-4.10927422862,-1.95385801021,-2.92912315738
-5.3599928184,-1.66225882966,-2.68989333455,0.974408619079
-4.3207898336,0.814756569307,-3.2059286589,3.72794039554
-7.4915868488,-3.25822803173,-4.50196398324,0.811472171998
-3.432383864,-3.09121263276,-3.08799930759,3.68500394846
-0.403180879199,-3.0941972338,-2.89403463194,4.36853572492
2.0860221056,-2.43718183483,-1.61006995628,2.07206750138
1.8752250904,-0.180166435861,-0.916105280627,4.16559927784
2.9344280752,-3.5631510369,-0.742140604971,3.3491310543
-4.25636893999,-4.55613563793,-0.828175929315,-0.0173371692381
-4.37716595519,-4.04912023897,-1.98421125366,0.056194607223
0.252037029608,-1.08210484,-0.820246578007,4.96972638368
1.87124001441,-0.325089441038,-1.73628190235,4.77325816014
-7.49955700079,-3.27807404207,-0.822317226699,2.3667899366
1.80964598401,-0.431058643106,-1.46835255104,2.23032171306
0.248848968815,0.815956755858,-0.834387875388,4.87385348953
12.6880519536,0.942972154822,-0.860423199734,7.72738526598
7.37725493842,2.89998755379,0.703541475921,7.02091704245
4.52645792322,-4.74299704725,-1.37249384842,-0.975551181094
5.40566090802,-7.41598164828,-2.39852917277,-3.33201940463
0.904863892818,-2.05896624931,0.505435502886,-0.748487628174
-4.13593312238,-8.34195085035,-1.03059982146,-5.70495585171
-1.66673013758,-5.82493545139,-1.13663514581,-3.50142407525
-2.44752715278,-3.16792005242,-2.14267047015,-2.23789229879
-3.88832416798,-3.85090465345,-2.83870579449,-1.91436052233
1.35087881683,-4.92388925449,-3.46474111884,-0.500828745871
0.580081801625,-4.19687385552,-1.94077644319,-1.95729696941
-0.460715213572,-3.19985845656,-1.33681176753,-2.82376519295
-4.14151222877,-8.18284305759,-1.69284709188,-5.29023341649
-4.62230924397,-8.88582765863,-0.328882416223,-4.11670164003
-4.03310625917,-4.97881225966,-0.724917740567,-2.23316986357
-0.333903274368,-4.1617968607,-2.89095306491,-3.11963808711
-2.02470028957,-2.20478146173,-2.37698838926,-2.81610631065
-4.20549730477,-7.50776606276,-3.1830237136,-5.51257453419
-1.21629431997,-4.7807506638,-0.739059037949,-4.82904275773
-8.31709133516,-4.76373526483,0.244905637706,-3.29551098127
-7.72788835036,-1.86671986587,1.40887031336,-2.6119792048
1.05131463444,-4.4497044669,1.99283498901,-4.23844742834
-9.08948238076,-4.14268906794,0.786799664669,-5.83491565189
-1.57027939596,-8.10567366898,-1.91923565968,-9.91138387542
-2.66107641116,-8.08865827001,-1.80527098402,-9.92785209896
-1.01187342636,-4.85164287104,-0.0613063083656,-8.7743203225
0.107329558443,-1.75462747207,1.15265836729,-9.06078854604
-1.46346745676,3.80238792689,2.26662304294,-1.98725676958
5.62573552805,-0.830596674143,2.9405877186,-0.473724993122
11.6049385128,4.41641872482,2.71455239425,4.89980678334
8.93414149765,4.01343412379,0.868517069906,0.9333385598
8.02334448245,3.27044952275,-0.947518254437,2.19687033626
5.62254746725,3.10746492172,0.176446421217,0.010402112719
4.04175045205,4.28448032068,2.48041109687,0.65393388918
7.27095343685,4.45149571965,1.72437577253,1.33746566564
11.5501564217,11.7385111186,2.43834044818,7.4709974421
12.1693594065,12.6855265176,3.20230512383,8.34452921856
7.50856239126,10.7825419165,6.68626979949,6.25806099502
2.43776537606,8.53955731551,5.19023447515,6.56159277148
0.546968360857,9.26657271447,5.3041991508,3.93512454794
-2.36382865434,8.64358811344,4.60816382645,-0.951343675597
-6.38462566954,7.80060351241,4.54212850211,0.292188100864
-5.56542268474,5.53761891137,4.18609317776,3.09571987732
-2.44621969994,4.17463431034,2.76005785342,-1.61074834621
-4.04701671514,2.1316497093,3.88402252907,-5.28721656975
14.6942369186,7.48729651163,1.74629723837,5.66717296511
13.8530124691,4.08946384019,0.676300185401,1.54872462117
-2.9982119804,1.50163116875,0.666303132435,-2.51972372277
1.14056357009,5.9637984973,1.98630607947,3.38182793329
5.51933912059,7.88596582586,2.0363090265,6.86337958935
8.41811467108,6.98813315441,1.57631197353,3.48493124542
8.40689022157,4.22030048297,0.12631492057,1.91648290148
0.705665772068,3.57246781153,1.0063178676,-0.611965442462
0.944441322565,8.53463514009,1.65632081464,1.0695862136
2.92321687306,2.33680246864,0.926323761671,-2.03886213034
7.84199242355,2.1189697972,1.6263267087,-1.84731047428
1.46076797405,5.42113712576,0.786329655737,0.274241181784
2.83954352454,3.45330445431,-1.85366739723,0.945792837845
-5.22168092497,-0.634528217131,-3.3236644502,-0.422655506096
3.30709462553,2.77763911143,-0.313661503162,0.0288961499664
0.505870176024,1.12980643999,0.286341443871,-0.399552193972
2.93464572652,4.75197376854,1.74634439091,3.10199946209
-0.846578722987,7.5641410971,2.49634733794,4.28355111815
10.3821968275,11.2563084257,2.94635028497,7.83510277421
11.540972378,15.3184757542,4.15635323201,11.8666544303
11.1497479285,13.1706430828,2.39635617904,10.7882060863
11.638523479,11.2228104113,-2.08364087393,11.2097577424
14.0172990295,5.34497773988,-1.1836379269,8.81130939846
11.32607458,0.297145068438,-0.0636349798606,2.55286105452
6.60485013047,-0.750687603002,-1.11363203283,1.30441271058
-3.95637431903,1.27147972555,-0.903629085793,-1.49403563336
-1.21759876854,-5.98635294589,-2.30362613876,-6.5924839773
-1.19882321804,-9.25418561733,-2.99362319173,-7.91093232124
-1.03004766755,-9.27201828877,-3.52362024469,-5.94938066518
9.06872788294,-7.19985096022,-2.28361729766,-5.29782900911
-8.69249656656,-5.92768363166,-0.763614350626,-6.75627735305
-7.13372101607,-2.9955163031,-2.03361140359,-4.83472569699
-3.36494546557,-4.69334897455,-3.41360845656,-6.11317404093
-1.89616991508,-5.28118164599,-1.54360550953,-4.71162238487
-6.52739436458,-4.15901431743,-0.803602562492,-4.35007072881
-9.51861881409,-2.79684698888,0.786400384543,-5.62851907275
1.81015673641,2.38532033968,2.78640333157,0.0730325833138
1.9189322869,-0.722512331758,3.83640627861,-0.865415760625
-11.3722921626,3.13965499679,4.17640922564,-1.20386410456
-4.16351661211,5.78182232535,3.60641217268,1.8576875515
1.88525893838,5.66398965391,1.59641511971,4.10923920756
4.47403448888,5.33615698247,1.13641806674,5.69079086362
5.49281003937,3.13832431102,1.99642101378,9.42234251968
2.78158558987,0.790491639582,1.19642396081,6.20389417574
3.04036114036,2.27265896814,3.23642690784,5.0654458318
2.87913669085,0.294826296697,1.78642985488,0.696997487865
1.83791224135,3.20699362525,2.50643280191,3.73854914393
2.32668779184,-1.96083904619,2.68643574894,1.88010079999
-0.724536657664,-5.69867171764,1.80643869598,1.54165245605
0.654238892832,-4.97650438908,0.576441643014,2.23320411211
-3.10698555667,-5.06433706052,-1.87355540995,2.27475576817
-0.0782100061806,-7.10216973196,-2.98355246292,0.416307424231
2.70056554431,-4.69000240341,-0.783549515887,3.05785908029
6.53934109481,-8.64783507485,-0.583546568852,-0.680589263644
1.5981166453,-7.3956677463,-1.38354362182,0.680962392415
-0.313107804202,-8.24350041774,-2.76354067479,-0.837485951522
-2.80433225371,-7.35133308918,-2.88353772775,-3.05593429546
1.85444329679,-10.6891657606,-3.77353478072,-3.5443826394
-15.4967811527,-12.6269984321,-2.43353183369,-9.05283098334
-22.1180056022,-14.1548311035,-1.55352888665,-12.6312793273
-10.7092300517,-11.472663775,-1.72352593962,-10.2397276712
-19.6804545012,-8.52049644639,-2.32352299258,-4.57817601515
-17.2216789507,-13.7783291178,-3.97352004555,-10.9066243591
-15.1829034002,-11.0061617893,-3.20351709852,-10.335072703
-10.8041278498,-7.87399446073,-3.58351415149,-7.49352104697
-7.75535229926,-9.82182713217,-3.52351120445,-6.82196939091
-12.3865767488,-11.7696598036,-4.86350825742,-8.95041773485
-12.4878011983,-12.9474924751,-2.26350531038,-6.96886607879
-9.94902564778,-9.5053251465,-0.58350236335,-6.56731442273
-16.2602500973,-5.39315781794,-1.56349941632,-7.28576276667
-9.20147454679,-5.80099048938,-3.16349646928,-6.70421111061
-13.4326989963,-6.48882316083,-1.39349352225,-6.39265945454
-12.7939234458,-4.23665583227,-0.423490575216,-6.48110779848
-16.2651478953,-8.44448850371,-2.83348762818,-8.04955614242
-10.6463723448,-3.92232117516,0.366515318852,-3.66800448636
-11.4375967943,-5.3401538466,2.31651826588,-5.8664528303
-12.4288212438,-2.89798651804,1.45652121292,-2.22490117424
-8.34004569333,-1.98581918948,3.53652415995,-2.33334951818
-8.33127014283,-3.52365186092,2.98652710698,-3.23179786211
-6.97249459234,-2.86148453237,0.77653005402,-3.79024620605
3.56628095816,0.630682796185,0.136533001054,2.08130545001
3.51505650865,6.37285012474,0.906535948086,6.15285710607
-2.70616794086,5.3450174533,2.13653889512,7.55440876213
6.07260760964,5.51718478186,3.16654184215,5.89596041819
-0.998616839868,6.49935211042,2.88654478919,2.78751207425
2.70015871063,8.20151943898,3.96654773622,6.18906373031
-4.77106573888,5.94368676753,0.546550683253,4.33061538638
-2.86229018839,1.98585409609,-3.82344636971,4.59216704244
3.00648536211,2.60802142464,-1.69344342268,3.3837186985
2.8452609126,5.9201887532,-0.033440475645,6.29527035456
0.624036463098,5.31235608176,-1.19343752861,4.36682201062
-2.75718798641,5.64452341032,-0.653434581578,3.89837366668
-1.42841243591,1.86669073887,0.496568365455,0.699925322742
-0.339636885419,2.80885806743,0.476571312489,0.741476978803
6.42913866508,-4.43897460401,-1.81342574048,-1.96697136513
-0.382085784433,-2.19680727546,-2.05342279344,-1.99541970907
-1.35331023394,-3.5646399469,-1.51341984641,-2.39386805301
-1.02453468344,-1.82247261834,-1.44341689938,0.397683603049
1.31424086705,0.149694710213,-1.77341395234,-0.0307647408899
-6.71698358245,-0.978137961229,0.0665889946904,-2.30921308483
6.57179196804,2.33402936733,-0.613408058276,-0.127661428767
4.82056751853,2.17619669588,-2.02340511124,-0.506109772707
5.63934306903,0.898364024441,-1.05340216421,-1.51455811665
15.2181186195,2.440531353,-0.443399217176,3.53699353942
13.89689417,3.89269868156,-1.02339627014,3.93854519548
-0.994330279485,4.29486601011,-1.50339332311,3.00009685154
0.314445271008,4.33703333867,2.43660962392,3.8616485076
5.6732208215,4.06920066723,0.766612570958,3.08320016366
-0.438003628002,1.97136799578,-1.64338448201,1.29475181972
-1.94922807751,3.26353532434,-2.13338153497,0.396303475783
6.60954747298,1.6757026529,-1.81337858794,1.50785513185
5.34832302348,2.09786998146,-0.843375640907,2.35940678791
5.98709857397,0.740037310014,-0.793372693872,2.00095844397
2.28587412447,-3.55779536143,-3.13336974684,0.942510100029
0.134649674965,-0.205628032876,-0.183366799807,-4.01593824391
8.26342522545,6.54653929568,2.03663614723,2.46561341215
9.99220077595,6.96870662424,2.20663909426,4.15716506821
2.97097632645,5.1308739528,2.96664204129,3.41871672427
4.47975187694,6.47304128136,4.04664498833,4.87026838033
-0.131472572564,2.31520860991,2.21664793536,0.661820036396
7.41730297793,2.40737593847,1.84665088239,-0.0266283075434
11.0760785284,5.23954326703,0.846653829429,1.84492334852
9.45485407892,4.55171059558,0.476656776464,3.51647500458
5.38362962941,7.74387792414,3.6766597235,5.63802666064
9.2124051799,6.22604525269,4.55666267053,4.7195783167
1.6311807304,1.21821258125,2.18666561756,-3.52887002724
4.99995628089,0.370379909808,1.2066685646,-2.78731837118
4.44873183139,-1.24745276163,-0.123328488371,-3.01576671511
-2.76084665697,-0.40554142441,-4.77325218023,-6.18920421512
-5.13333701473,-1.8168702504,-4.42305578763,-4.21809839086
-1.3358273725,1.1618009236,-3.29285939503,-0.15699256661
-0.618317730263,-0.299527902389,-3.18266300243,-0.055886742357
-1.36080808803,-0.510856728382,-2.21246660982,-2.7647809181
6.94670155421,1.40781444563,0.0377297827781,-0.243675093847
-1.16578880356,-0.213514380372,-0.73207382462,-1.1125692696
-6.48827916132,-0.264843206362,-2.72187743202,-1.70146344534
4.23923048091,4.22382796764,-0.721681039417,3.36964237891
7.41674012315,1.03249914165,-0.621484646814,5.22074820317
7.00424976538,0.111170315657,-1.18128825421,2.67185402742
-4.21824059237,5.52984148966,-1.15109186161,4.67295985167
1.30926904986,0.448512663668,-1.24089546901,-0.33593432407
1.9967786921,2.02718383768,-0.470699076404,2.63517150018
3.64428833433,1.65585501168,-0.260502683803,5.15627732443
2.30179797656,0.934526185687,0.299693708799,2.17738314869
6.1893076188,3.5231973597,1.5198901014,5.88848897294
2.85681726104,4.4318685337,-0.279913505996,3.6495947972
2.07432690327,4.91053970771,-1.49971711339,2.43070062145
2.21183654551,0.989210881715,-0.629520720793,1.02180644571
0.279346187745,-1.14211794428,-2.19932432819,-0.527087730041
2.49685582998,-2.29344677027,-2.25912793559,-1.44598190579
5.82436547222,1.40522440373,-2.10893154299,3.46512391847
2.38187511445,0.0338955777406,-1.59873515038,1.69622974272
4.96938475669,0.612566751744,0.511461242219,2.85733556697
3.96689439892,0.731237925756,1.49165763482,3.25844139123
-0.685595958839,0.239909099761,2.26185402742,-1.04045278452
3.2419136834,-3.26141972623,0.732050420023,-1.84934696026
2.23942332563,0.817251447774,1.17224681263,2.57175886399
0.866932967867,-2.70407737822,-0.95755679477,-0.477135311756
1.3544426101,0.174593795786,-2.08736040217,-0.816029487502
3.52195225234,-1.01673503021,-2.89716400957,0.215076336752
2.22946189457,-3.5980638562,-3.03696761696,-3.703817839
2.69697153681,-2.3993926822,-0.676771224364,-2.32271201474
4.97448117904,-3.79072150819,0.653425168239,-3.89160619049
-6.78800917872,-4.07205033418,0.24362156084,-5.30050036623
-3.66049953648,-0.813379160172,0.843817953444,-0.349394541978
-1.51298989425,0.02529201383,1.21401434605,-0.398288717724
-9.54548025201,-1.70603681216,0.044210738648,-2.74718289347
-6.78797060977,-1.31736563816,0.144407131249,-1.38607706922
-4.09046096754,-9.41869446415,-2.76539647615,-9.21497124496
-9.1229513253,-6.36002329014,-0.805200083547,-8.72386542071
-2.17544168307,-0.531352116137,0.684996309055,-3.39275959646
-0.407932040835,4.86731905787,1.72519270166,4.0683462278
-0.860422398597,3.42599023188,3.05538909426,2.56945205205
5.59708724364,-0.275338594114,3.04558548686,1.5605578763
2.38459688587,-2.60666742011,1.60578187946,-1.70833629944
-2.49789347189,-7.9079962461,0.705978272068,-6.42723047519
0.249616170346,-7.4993250721,0.366174664669,-8.03612465093
-7.35287418742,-5.36065389809,-0.473628942729,-5.40501882668
-8.06536454518,-4.59198272408,-0.503432550127,-3.06391300242
-2.58785490295,-3.83331155008,0.836763842475,-2.60280717817
-7.80034526071,-5.50464037607,0.736960235077,-6.18170135392
-4.11283561847,-3.56596920207,-0.0128433723203,-3.97059552966
-8.76532597624,-3.57729802806,1.70735302028,-3.27948970541
-3.207816334,-6.23862685405,2.96754941288,-4.57838388116
-3.38030669176,-4.79995568004,0.787745805486,-4.0472780569
-0.592797049532,-5.19128450604,0.407942198088,-2.55617223265
-0.435287407297,-5.77261333203,0.198138590689,-5.04506640839
3.65222223494,-7.97394215803,-0.0416650167081,-4.35396058414
-5.78026812283,-7.02527098402,0.138531375895,-6.75285475989
-10.4327584806,-6.24659981001,2.0887277685,-6.51174893563
-16.6052488384,-2.45792863601,2.9989241611,-5.80064311138
-13.9477391961,-4.099257462,3.6191205537,-8.52953728713
-11.5802295539,-3.30058628799,0.909316946303,-5.91843146287
-8.65271991165,-5.84191511399,-0.240486661096,-5.85732563862
-1.85521026941,-5.44324393998,0.689709731507,-4.94621981436
-1.94770062717,-2.61457276597,0.769906124109,-2.80511399011
-6.83019098494,-8.61590159197,-2.80989748329,-4.88400816586
-1.8426813427,-3.07723041796,0.0402989093127,-0.0629023416022
-8.37517170047,1.65144075605,0.570495301916,1.90820348265
-6.15766205823,-1.08988806995,1.01069169452,1.58930930691
-5.380152416,2.25878310406,3.72088808712,4.87041513116
-0.422642773763,3.31745427807,2.87108447972,4.79152095541
2.19486686847,0.296125452071,0.801280872325,3.67262677967
2.57237651071,3.32479662608,1.11147726493,4.67373260392
1.13988615295,8.59346780008,2.42167365753,6.23483842817
1.13739579518,9.81213897409,2.79187005013,6.05594425243
4.53490543742,11.3008101481,4.26206644273,8.12705007668
4.57241507965,8.6794813221,5.68226283533,8.72815590094
7.45992472189,8.72815249611,5.92245922794,7.08926172519
4.45743436413,8.61682367012,4.46265562054,8.07036754944
6.78494400636,4.53549484413,1.94285201314,4.5814733737
6.0624536486,7.29416601813,2.63304840574,2.34257919795
2.97996329084,4.72283719213,1.70324479835,3.6736850222
-1.51252706693,4.53150836614,3.17344119095,2.44479084646
2.1449825753,4.16017954015,2.63363758355,1.38589667071
6.28249221754,6.09885071416,1.81383397615,3.57700249497
6.03000185977,7.40752188816,0.694030368753,3.63810831922
12.957511502,10.6661930622,0.434226761356,7.16921414347
12.1550211442,10.2548642362,0.834423153958,8.30031996773
7.59253078649,12.3235354102,2.79461954656,7.92142579198
14.9700404287,12.2022065842,1.82481593916,12.0725316162
11.317550071,10.6708777582,1.61501233177,13.9636374405
13.5950597132,4.3195489322,0.485208724367,9.04474326474
20.6825693554,2.82822010621,1.55540511697,9.865849089
19.8300789977,4.47689128021,2.90560150957,10.6469549133
-0.0824113601011,9.00556245422,-1.88420209783,8.5180607375
-5.34490171786,10.0942336282,0.815994294775,8.06916656176
-5.72739207563,5.09290480223,3.46619068738,5.29027238601
-2.83988243339,4.57157597624,1.46638707998,3.83137821027
-0.342372791161,4.12024715025,0.0265834725815,2.06248403452
3.36513685108,7.03891832426,-0.183220134817,7.04358985877
13.2426464933,4.14758949826,-0.903023742216,8.55469568303
6.43015613555,1.02626067226,-3.23282734961,4.55580150728
2.93766577778,1.91493184627,-0.96263095701,3.20690733153
6.55517542002,4.76360302028,1.30756543559,3.98801315579
-6.49731493774,3.66227419429,1.85776182819,1.18911898004
-4.21980529551,3.67094536829,2.0479582208,0.490224804296
-4.53229565327,1.6296165423,1.2581546134,0.89133062855
-5.23478601103,0.858287716306,0.0883510060012,-0.567563547194
0.2427236312,0.856958890312,-1.7314526014,0.363542277059
3.53023327344,-1.30436993568,-2.4512562088,-1.42535189869
0.377742915669,-1.75569876167,1.00894018381,-4.51424607443
1.86525255791,-1.74702758767,-0.790863423592,-5.19314025018
-5.61723779986,-3.00835641366,-2.92066703099,-5.88203442593
-3.31972815762,-0.179685239655,-2.30047063839,-4.68092860167
-5.69221851539,-2.02101406565,-4.12027424578,-7.65982277742
-9.09470887315,-4.28234289164,-3.86007785318,-4.06871695316
-3.18719923091,-5.12367171764,-2.01988146058,-4.33761112891
-5.04968958868,-6.02500054363,-2.04968506798,-9.48650530466
-3.68217994644,-8.68632936962,-0.889488675377,-8.5053994804
2.16532969579,-9.95765819561,-3.04929228277,-7.21429365615
0.662839338031,-10.5889870216,-4.81909589017,-8.4631878319
-6.01965101973,-13.1003158476,-6.76889949757,-9.16208200764
-3.0021413775,-15.2116446736,-7.13870310497,-8.74097618339
-4.70463173527,-12.8229734996,-4.84850671237,-8.85987035913
-10.917122093,-11.9843023256,-5.47831031976,-9.19876453488
-6.91722134801,-5.70146603723,-0.568048780493,-2.93254261737
0.556422291309,-5.20912426426,1.96744902039,-1.71161995417
-8.92993406937,-5.85678249129,-1.13705317873,-2.54069729098
