-7.2533866279,-15.56484375,0.889996366273,-20.6427688953
-11.6401910708,-20.9242064468,-0.506733399336,-22.037589956
-10.3169955136,-21.1035691437,-0.463463164946,-21.0024110168
-5.3537999565,-17.3429318405,-1.70019293056,-18.5772320775
-4.02060439937,-8.4422945374,-0.056922696167,-12.0120531382
1.27259115777,-2.99165723425,4.09634753822,-1.92687419886
-1.5742132851,-9.4710199311,8.73961777261,-2.49169525956
-10.391017728,-16.730382628,3.062888007,-14.3565163203
-12.8578221708,-7.9297453248,-3.29384175861,-12.661337381
-1.86462661371,-5.26910802165,-1.49057152422,-8.54615844168
-6.61143105658,-9.1984707185,-4.99730128983,-14.2109795024
-6.57823549944,-10.6278334154,-7.91403105544,-11.6058005631
-5.17503994231,-13.2371961122,-5.37076082105,-11.1506216238
-3.42184438518,-9.03655880905,-3.36749058666,-8.20544268449
-2.23864882805,-4.1659215059,-0.284220352274,-5.38026374519
-1.62545327091,-1.49528420275,-0.980950117886,-2.35508480589
-1.38225771378,-7.60464689961,-3.9876798835,-5.9199058666
-4.85906215665,-16.6940095965,-5.19440964911,-9.8447269273
-1.37586659952,-10.4333722933,-4.56113941472,-8.809547988
-0.892671042384,-7.12273499015,-5.04786918033,-5.19436904871
2.81052451475,-1.69209768701,-2.84459894594,0.830809890591
1.34372007188,-3.57146038386,1.77867128845,-0.664011170114
-2.19308437099,-3.12082308071,1.37194152284,3.31116776918
2.88011118614,-0.230185777553,0.335211757232,5.95634670848
5.68330674327,4.53045152559,1.12848199162,5.81152564778
9.36650230041,3.95108882874,0.43175222601,4.27670458707
1.28969785754,1.25172613189,-1.2949775396,4.82188352637
1.62289341468,-0.877636564961,0.158292694789,2.44706246567
-0.893911028201,1.87300073819,2.96156292918,1.60224140496
-0.920715471068,3.26363804134,2.11483316357,1.87742034426
-3.07751991393,3.91427534448,1.67810339795,4.13259928356
-5.6343243568,1.76491264764,1.47137363234,4.11777822285
-3.16112879966,2.97554995079,1.15464386674,5.98295716215
1.64206675746,3.24618725394,-0.522085898876,5.31813610145
4.6552623146,8.32682455708,-1.82881566448,6.22331504075
8.01845787173,12.8374618602,-0.0455454300973,9.02849398004
4.05165342886,6.85809916339,0.307724804294,7.27367291934
-3.685151014,3.20873646653,2.29099503868,1.38885185864
0.398044543123,1.93937376969,0.784265273072,1.73403079793
-2.19875989974,5.90001107283,-1.03246449254,3.52920973723
1.38443565739,6.88064837598,-1.70919425815,4.79438867653
-2.44236878548,3.26128567913,-1.14592402376,4.63956761582
-0.149173228347,1.74192298228,-1.80265378937,4.31474655512
6.68402232878,5.85256028543,-0.579383554981,4.34992549442
1.77721788592,8.59319758858,-1.76611332059,5.03510443371
2.98041344305,8.83383489173,-0.522843086201,9.80028337301
-0.306390999816,6.55447219488,-0.399572851809,7.78546231231
2.87680455732,3.20510949803,-0.46630261742,6.8506412516
-0.569999885556,5.64574680117,-3.94303238303,6.3058201909
2.93319567158,9.04638410432,-3.31976214865,6.1109991302
4.66639122871,7.63702140748,-0.596491914257,4.58617806949
1.45958678584,3.03765871063,-0.403221679866,7.18135700879
1.59278234298,-2.57170398622,-3.28995144548,1.11653594809
-0.654022099894,3.21893331692,-4.32668121109,3.00171488738
2.62917345724,11.1995706201,-2.2734109767,7.99689382668
4.92236901437,9.21020792323,-2.06014074231,9.71207276598
4.6055645715,2.79084522638,-2.39687050792,3.85725170527
5.16876012864,-0.308517470483,-0.123600273528,2.17243064457
0.891955685773,4.92211983267,2.59966996086,4.77760958387
0.685151242898,10.3627571358,2.63294019525,6.17278852316
3.31834680004,10.313394439,1.60621042964,8.55796746246
3.04154235717,5.35403174212,2.06948066403,4.05314640176
4.0247379143,3.05466904527,4.00275089842,3.78832534105
4.61793347143,7.03530634842,-0.27397886719,9.54350428035
8.74112902856,9.51594365157,0.419291367198,7.27868321965
9.27432458569,10.0065809547,4.03256160159,5.81386215894
3.49752014282,5.02721825786,1.83583183598,4.02904109824
1.79071569996,1.71785556102,0.379102070368,4.62422003754
3.59391125709,12.4784928642,6.03237230476,11.2093989768
7.69710681422,16.6591301673,5.62564253914,14.5445779161
10.6003023714,18.2897674705,3.95891277353,11.9197568554
10.8134979285,12.6804047736,4.76218300792,12.4849357947
1.37669348562,9.01104207677,7.07545324231,8.30011473402
0.179889042753,10.0916793799,5.4887234767,4.93529367332
6.97308459988,11.6323166831,6.31199371109,4.70047261262
1.70628015701,13.6729539862,4.76526394548,2.83565155191
-0.350524285852,7.99359128936,4.05853417987,2.55083049121
-2.66732872872,3.41422859251,5.22180441426,4.75600943051
-1.95413317159,5.11486589566,4.00507464865,5.7411883698
4.04906238554,9.18550319882,5.38834488304,5.1563673091
1.02225794268,11.376140502,4.29161511743,5.8515462484
-1.75454650019,5.92677780511,4.01488535182,4.12672518769
-2.95135094305,0.717415108258,2.81815558621,0.731904126991
5.43184461408,3.22805241141,0.801425820599,1.81708306629
5.6250401712,7.40868971456,0.24469605499,4.64226200559
2.43823572833,7.06932701771,0.677966289379,2.26744094488
1.85143128547,2.37996432085,-0.908763476233,-1.18738011582
0.0146268426033,-0.839398375996,-0.445493241845,2.39779882347
0.587822399735,0.951238927155,0.237776992544,3.66297776277
7.44101795687,9.3318762303,0.751047226931,7.22815670207
6.334213514,7.01251353345,-0.615682538679,7.16333564137
0.87740907113,0.373150836604,-0.852412304288,3.86851458066
0.600604628264,-3.33621186025,-1.7491420699,1.48369351996
0.323800185397,-1.40557455709,-2.87587183551,1.20887245926
1.63699574253,1.96506274605,-3.63260160112,0.254051398553
5.43019129966,0.255700049202,-2.65933136673,0.509230337848
4.70338685679,-2.03366264765,0.643938867659,-0.125590722855
0.226582413925,-0.9330253445,1.84720910205,6.36958821644
4.68977797106,4.72761195865,2.78047933644,5.66476715574
-1.05702647181,0.548249261796,2.01374957083,-0.030053904964
-2.85383091468,5.86888656495,0.66701980522,2.68512503433
-1.92063535755,-0.790476131901,0.55029003961,2.54030397363
-5.12743980042,-4.24983882875,0.233560273999,-1.24451708707
5.19575575671,2.81079847439,0.556830508387,4.62066185222
8.21895131385,5.47143577754,2.95010074278,5.41584079152
9.00214687097,5.8120730807,2.40337097717,3.28101973082
3.76534242811,1.50271038384,0.386641211557,2.61619867011
1.31853798524,-5.496652313,0.129911445947,-1.45862239059
3.97173354238,-2.89601500986,1.94318168033,1.22655654871
7.85492909951,1.21462229329,0.25645191472,2.021735488
3.10812465664,0.145259596444,-2.16027785089,-0.383085572699
-1.97867978623,-4.0141031004,-0.427007616498,-2.6479066334
2.30451577091,-8.14346579726,1.20626261789,-3.35272769411
3.21771132804,-3.02282849411,2.28953285228,-1.61754875481
-2.32909311483,1.03780880904,0.382803086672,-2.08236981551
-1.7858975577,0.578446112195,-0.533926678941,-3.52719087622
-8.49270200056,-5.16091658466,-1.68065644455,-5.68201193692
-8.29950644344,-11.9602792815,-3.40738621016,-5.89683299762
-6.5863108863,-11.7996419784,-6.36411597577,-9.86165405833
-4.87311532917,-9.09900467521,-5.18084574138,-8.68647511903
-7.31991977204,-10.4783673721,-2.77757550699,-12.9012961797
-14.3667242149,-17.6577300689,-5.2843052726,-16.5861172404
-16.6735286578,-19.6370927658,-2.36103503821,-17.5809383011
-12.1703331006,-14.0764554626,-1.02776480382,-15.5957593618
-6.96713754351,-16.7258181595,-2.79449456943,-16.7105804225
-9.41394198638,-17.7151808563,-4.61122433504,-17.8154014832
-11.6307464292,-21.9845435532,-5.46795410066,-21.670222544
-13.9375508721,-26.58390625,-6.10468386627,-26.4650436047
22.952903343,13.4232739826,-8.97788880815,36.1870094477
19.0820739105,21.4975199139,-8.67691565763,38.5937457654
16.0612444779,15.4917658453,-7.6459425071,31.4904820832
12.4204150453,11.0560117767,-7.23496935658,27.8572184009
8.72958561276,7.71025770808,-6.01399620606,26.7039547187
3.85875618019,10.0945036395,-4.93302305554,27.1206910364
15.5479267476,14.7087495708,-6.87204990501,28.2674273542
17.3870973151,14.6329955022,-3.39107675449,26.7141636719
9.6762678825,12.1172414336,-3.90010360397,25.4308999897
12.3054384499,10.221487365,-3.74913045345,25.0376363075
24.4646090174,12.8957332963,-1.83815730293,24.0143726252
22.2137795848,14.7999792277,-4.73718415241,22.211108943
19.5229501522,14.4342251591,-4.48621100188,19.4778452607
17.4921207197,9.79847109046,-4.00523785136,19.3345815785
13.6012912871,4.01271702185,-6.54426470084,17.3313178962
12.6204618545,3.91696295322,-2.75329155032,12.668054214
12.819632422,4.1512088846,-3.57231839979,5.47479053173
8.88880298939,4.71545481597,-4.57134524927,6.31152684948
2.06797355681,-0.590299252646,-1.63037209875,4.15826316723
0.957144124244,-4.04605332127,-0.839398948232,2.19499948499
8.19631469168,3.40819261011,-0.878425797706,6.10173580274
11.0954852591,11.8824385415,-0.0774526471832,10.9584721205
8.61465582655,5.34668447286,-0.786479496663,6.81520843825
5.19382639398,-3.10906959576,-1.80550634614,3.731944756
-3.60700303858,-9.65482366439,-3.92453319562,-5.69131892625
-2.62783247115,-8.88057773301,-1.0735600451,-13.1845826085
-2.82866190372,-4.13633180163,1.93741310542,-11.7878462907
-3.00949133629,-3.68208587025,1.38838625595,-14.111109973
1.86967923115,-5.40783993887,0.94935940647,-11.7043736552
-4.12115020143,-7.9735940075,3.55033255699,-12.4376373375
-0.751979633991,-8.42934807612,2.22130570751,-11.4209010197
-1.98280906656,-5.04510214474,1.11227885803,-10.804164702
-7.88363849913,-4.85085621337,2.06325200856,-11.1774283842
-4.72446793169,-12.646610282,0.594225159075,-16.8606920665
-13.4452973643,-16.2123643506,-0.694801690403,-21.3739557487
-12.6261267968,-16.3181184192,1.03617146012,-24.897219431
-14.7869562294,-7.16387248786,3.54714461065,-19.1404831132
-11.797785662,-6.88962655648,1.63811776117,-19.6637467955
-17.9586150945,-10.0753806251,2.76909091169,-17.8670104777
-19.5294445271,-11.8211346937,5.32006406221,-20.41027416
-20.9102739597,-12.6868887624,5.00103721273,-22.5435378422
-19.1711033922,-4.94264283097,5.68201036325,-19.0668015244
-12.8919328248,-8.8883968996,4.79298351377,-23.6200652067
-14.0327622574,-14.1141509682,1.76395666429,-22.8733288889
-19.7935916899,-19.9799050368,0.924929814821,-25.3165925712
-17.2244211225,-12.4556591055,2.25590296534,-23.7198562534
-18.0552505551,-6.46141317409,5.03687611586,-23.4931199357
-19.3260799876,-4.50716724271,7.21784926638,-17.8963836179
-16.7569094202,-9.41292131133,7.6688224169,-18.5496473002
-17.4977388528,-11.05867538,7.78979556743,-20.8429109824
-15.7985682853,-7.62442944858,6.55076871795,-16.8361746647
-14.0093977179,-8.1501835172,4.79174186847,-16.8294383469
-18.5502271505,-6.10593758583,3.642715019,-15.1427020292
-17.051056583,-8.85169165446,5.10368816952,-16.5159657114
-14.6618860156,-13.5574457231,4.35466132004,-18.9192293937
-16.5127154482,-11.0631997917,7.53563447056,-19.1824930759
-13.1435448807,-5.74895386033,4.93660762108,-19.3457567581
-14.0543743133,-6.97470792895,4.4775807716,-17.6390204404
-14.5652037459,-12.6004619976,2.51855392212,-18.5722841226
-15.2660331785,-11.9862160662,2.34952707265,-18.6955478049
-17.526862611,-10.5619701348,3.63050022317,-17.8088114871
-12.6976920436,-5.00772420344,2.72147337369,-15.7020751694
-0.868521476157,-0.21347827206,3.27244652421,-10.5253388516
-5.35935090872,-2.70923234068,3.97341967473,-7.96860253388
-8.11018034129,-5.71498640931,1.81439282526,-12.5418662161
-7.31100977386,-2.42074047793,1.93536597578,-8.82512989837
-1.92183920643,3.62350545345,2.0763391263,-5.25839358062
-5.502668639,3.11775138482,4.96731227682,-4.24165726287
5.85650192844,4.5319973162,3.54828542735,-2.67492094511
5.58567249588,7.36624324758,4.78925857787,5.88181537264
4.26484306331,13.070489179,6.07023172839,8.87855169039
9.79401363074,15.9647351103,5.73120487891,8.08528800815
9.67318419817,12.7389810417,4.89217802943,4.6820243259
2.48235476561,7.22322697309,5.72315117995,4.32876064365
-2.52847466696,2.35747290446,4.55412433048,3.01549696141
0.76069590047,3.78171883583,4.005097481,-0.857766720839
9.8998664679,4.48596476721,1.52607063152,-2.86103040309
6.99903703533,6.82021069858,1.76704378204,2.42570591467
1.26820760276,-0.925543370038,1.70801693256,0.152442232418
-6.2826218298,-5.55129743866,0.458990083087,-5.09082144983
-2.30345126237,-4.48705150728,0.849963233606,-1.99408513207
2.34571930506,6.5671944241,3.92093638413,2.28265118568
-3.3351101275,5.12144035548,3.08190953465,0.799387503432
-2.35593956007,-2.62431371315,1.75288268517,-0.203876178814
-1.41676899263,-3.24006778177,1.8738558357,0.812860138938
4.19240157479,-0.255821850391,1.34482898622,1.82959645669
4.66157214223,-0.291575919015,0.82580213674,1.79633277444
1.25074270966,2.76267001236,-0.15322471274,1.9130690922
1.04991327709,-1.85308405626,-1.48225156222,-0.0601945900489
-6.67091615548,-4.70883812488,-1.8712784117,-4.1434582723
-4.67174558804,-1.59459219351,0.639694738824,-0.986721954543
0.0874249793851,3.48965373787,0.180667889348,1.11001436321
-4.90340445318,0.0138996692476,-2.33835896013,1.04675068096
-0.994233885751,-0.131854399377,-2.36738580961,4.34348699872
2.47493668168,-3.787608468,-2.16641265908,3.21022331647
2.04410724912,0.856637463381,-1.50543950856,5.81695963422
3.74327781655,3.81088339475,-2.90446635804,6.36369595198
-0.317551616019,3.93512932613,-4.52349320752,4.76043226973
2.56161895142,-1.1506247425,-2.342520057,3.60716858748
1.56078951885,-10.0363788111,-3.56154690648,0.153904905235
4.27996008629,-5.26213287975,-5.66057375595,2.13064122299
0.619130653715,-1.72788694836,-5.44960060543,1.46737754074
1.39830122115,1.77635898301,-3.57862745491,0.134113858494
4.81747178858,1.00060491438,-2.92765430439,6.47085017625
2.53664235601,-4.08514915423,-3.11668115387,6.107586494
10.7658129234,-2.13090322286,-5.13570800334,5.86432281175
12.6849834909,4.15334270852,-5.71473485282,9.88105912951
8.95415405831,5.3575886399,-2.6837617023,8.67779544726
4.01332462574,1.70183457127,-0.372788551776,4.97453176501
4.72249519317,0.506080502651,-0.0718154012575,4.52126808277
6.5616657606,7.35032643403,-1.65084225074,8.97800440052
3.09083632804,8.5745723654,-3.19986910021,7.64474071827
7.99000689547,10.1188182968,-4.77889594969,8.70147703603
10.2291774629,2.59306422816,-6.82792279917,5.38821335378
4.45834803034,-1.75268984046,-7.03694964865,3.96494967153
5.88751859777,0.491556090914,-3.31597649813,6.88168598928
10.5166891652,5.98580202229,-1.6550033476,9.03842230704
2.24585973263,4.94004795367,-3.14403019708,7.43515862479
5.57503030007,2.58429388504,-0.543057046558,7.96189494255
5.2842008675,3.36853981642,1.79791610396,9.9386312603
6.82337143493,5.6427857478,-2.49111074552,14.2353675781
7.72254200236,8.53703167917,-5.45013759499,12.6621038958
6.9817125698,7.04127761055,-1.23916444447,11.7988402136
6.65088313723,0.795523541929,-0.0681912939508,10.0655765313
1.93005370466,-1.63023052669,-2.78721814343,7.79231284906
3.64922427209,3.43401540468,0.603755007094,10.3490491668
0.118394839526,6.16826133606,1.77472815762,9.89578548457
5.32756540696,3.88250726744,-0.604298691862,5.43252180232
2.30408793605,-5.8572928779,-2.54742732559,-9.11558139534
-4.93630616531,-10.8770955983,-3.51412261376,-8.93076908991
-0.206700266659,-3.59689831875,-2.67081790194,-7.12595678447
3.73290563199,4.40329896082,-2.03751319013,2.11885552097
1.76251153063,2.89349624039,1.17579152169,4.19366782641
-2.67788257072,-3.23630648003,2.37909623352,-0.851519868153
-8.60827667209,-6.31610920046,-0.917599054665,-8.21670756271
-7.65867077343,-3.61591192088,-0.344294342845,-8.02189525728
-2.3090648748,-3.89571464132,1.76901036898,-7.13708295184
1.77054102386,-4.27551736174,-2.27768491921,-7.6822706464
0.240146922493,-6.68532008216,-6.42438020739,-9.63745834096
-3.37024717886,-10.2451228026,-5.72107549556,-8.90264603552
0.279358719788,-0.644925523018,-0.297770783745,0.132166269916
2.12896461843,3.73527175655,-3.22446607192,2.71697857536
3.29857051707,3.02546903613,-3.5311613601,-0.378209119206
-5.99182358428,-1.92433368429,-2.95785664829,-2.71339681377
-7.54221768564,-7.65413640473,-1.17455193646,-6.37858450833
-3.46261178698,-4.86393912515,-0.151247224643,-7.26377220289
0.436994111653,1.69625815442,-0.987942512824,-2.35895989745
4.8966000103,1.50645543399,-2.654637801,-2.76414759201
1.81620590894,-4.31334728643,-0.151333089179,-2.95933528657
0.605811807589,-4.20315000686,2.14197162264,-1.98452298114
-1.69458229376,1.34704727271,0.295276334458,-0.579710675698
-1.61497639512,6.23724455229,-0.241418953723,1.21510162974
0.0946295035246,4.90744183186,1.8018857581,1.65991393518
-3.73576459783,0.717639111434,1.39519046992,-2.15527375938
-3.16615869919,-0.0721636089947,0.37849518174,-0.200461453944
0.303447199462,3.58803367058,1.51179989356,2.38435085149
5.8630530981,9.40823095015,3.35510460538,5.45916315693
10.2926589968,12.4184282297,5.0484093172,7.01397546237
2.01226489539,2.6686255093,3.72171402902,2.62878776781
-3.13812920596,-3.18117721113,2.21501874084,0.45360007325
-2.87852330732,2.24902006845,1.17832345266,-0.321587621314
-3.24891740867,7.75921734802,3.12162816448,0.923224684126
-1.26931151003,8.63941462759,2.9049328763,4.06803698956
-0.809705611384,6.17961190717,4.05823758812,1.972849295
-1.07009971274,3.01980918674,3.99154229994,-0.51233839956
3.36950618591,7.17000646632,4.71484701176,5.35247390588
3.21911208455,10.1302037459,4.99815172358,7.98728621132
0.908717983199,8.38040102546,2.7614564354,6.94209851676
4.96832388184,1.26059830503,1.40476114722,4.4069108222
5.08792978049,1.0307955846,1.21806585904,4.94172312763
-1.16246432087,4.64099286418,2.69137057086,7.76653543307
-1.46285842222,5.30119014375,1.54467528268,5.12134773851
3.12674747642,6.41138742332,0.257979994505,4.61616004395
-2.29364662493,3.6315847029,-0.778715293676,1.21097234939
-9.05404072629,-4.04821801753,-0.785410581859,-1.50421534517
3.47556517236,3.03197926204,1.35789412996,6.16059696026
5.545171071,9.19217654161,4.29119884178,13.0954092657
5.39477696965,6.41237382119,2.7645035536,9.33022157114
4.33438286828,3.14257110077,3.49780826543,8.45503387658
2.46398876694,-2.74723161967,4.36111297725,4.32984618202
0.683594665577,1.69296565991,2.65441768907,6.31465848746
-0.866799435775,2.06316293948,2.97772240088,3.0594707929
-1.83719353713,-0.336639780944,2.26102711271,-0.885716901666
-5.49758763849,-0.816442501367,2.60433182452,4.64909540377
-6.75798173984,-6.2062452218,2.19763653635,1.87390770921
-4.08837584119,-3.26604794223,1.41094124817,2.10872001465
4.62123005745,2.33414933734,1.82424595999,7.03353232009
7.05083595609,4.04434661692,-1.06244932819,7.73834462553
3.46044185474,-3.1354561035,-2.81914461637,-0.0468430690344
3.47004775338,-6.45525882393,-4.67583990455,-1.4620307636
3.18965365203,-3.64506154435,-4.49253519273,-0.217218458158
5.83925955067,3.43513573521,-0.739230480911,3.70759384728
6.55886544932,9.41533301479,0.34407423091,6.47240615272
7.64847134797,4.39553029437,0.697378942728,7.41721845816
3.8380772466,-1.57427242607,1.94068365455,3.5420307636
4.09768314525,-1.63407514649,-0.776011633632,1.78684306903
5.33728904389,2.47612213308,-1.16270692181,3.03165537447
5.42689494255,0.186319412656,-1.34940220999,0.0264676799125
0.346500841188,-4.94348330777,-2.60609749817,-1.00872001465
-0.603893260166,-6.4932860282,-1.11279278635,0.166092290789
-1.28428736152,-1.52308874863,-0.519488074529,0.890904596228
-3.19468146288,3.32710853095,-0.636183362709,1.17571690167
-7.63507556423,0.967305810518,2.32712134911,-3.1494707929
-8.06546966559,-2.48249690991,0.0604260609325,-2.77465848746
-6.22586376694,-12.7722996303,-1.89626922725,-5.82984618202
-6.4862578683,-9.94210235076,-1.94296451543,-6.79503387658
0.79334803034,-0.63190507119,-0.639659803608,-0.97022157114
3.59295392899,2.97829220838,-0.596355091788,1.2745907343
-3.00744017237,-6.48151051204,-3.11305037997,-3.52059696026
-7.08783427372,-9.67131323247,-3.44974566815,-5.93578465483
-3.50822837508,-3.64111595289,-3.45644095632,-3.98097234939
-3.51862247643,-2.82091867331,-4.78313624451,-5.84616004395
-4.17901657779,-2.83072139375,-5.37983153269,-4.67134773851
-3.86941067914,-4.65052411417,-1.55652682087,-2.37653543307
-3.8798047805,-8.19032683461,-2.71322210905,-4.76172312763
-4.41019888185,-9.94012955503,-3.07991739723,-6.77691082219
-0.440592983206,-5.29993227545,-2.6166126854,-5.27209851676
-0.790987084561,-3.51973499588,-0.723307973585,-5.05728621132
-1.20138118592,-7.4895377163,-4.08000326177,-5.80247390588
-9.82177528727,-12.0293404367,-4.71669854995,-8.48766160044
0.42783061137,-6.00914315716,-1.79339383812,-5.772849295
2.31743651002,1.98105412241,-1.8700891263,-0.0880369895622
0.567042408657,4.37125140199,-1.54678441448,4.30677531587
-1.37335169269,-3.65855131844,-2.75347970266,-1.70841237869
-0.203745794053,-8.36835403887,-3.61017499084,-5.97360007325
6.4058601046,-4.9581567593,-1.47687027902,-0.0287877678111
2.94546600324,-0.177959479719,0.126434432797,4.22602453763
7.83507190189,1.02223779985,-2.61026085538,4.22083684307
12.7146778005,-5.40756492058,-6.61695614356,2.37564914851
11.8542836992,-5.007367641,-2.73365143174,0.960461453944
6.68388959781,5.53282963857,1.31965328008,9.95527375938
1.84349549647,8.54302691815,-0.387042008104,10.7300860648
4.62310139511,9.44322419771,-0.123737296282,4.99489837026
5.32270729376,3.31342147729,0.609567415537,3.2197106757
1.1823131924,0.31361875686,1.65287212736,6.67452298114
7.56191909104,5.35381603643,0.20617683918,8.09933528658
6.90152498968,9.90401331601,3.779481551,9.14414759201
5.97113088833,12.7342105956,5.49278626282,9.35895989745
5.87073678698,8.27440787516,0.836090974637,7.33377220289
1.19034268562,0.314605154723,0.469395686458,4.66858450833
-3.72005141574,-3.5851975657,0.442700398282,-5.62660318623
-4.29044551709,0.744999713876,0.0960051100992,-6.01179088079
-3.72083961844,2.52519699345,-0.540690178077,-2.17697857535
-4.8212337198,-0.104605726978,0.172614533738,-4.78216626992
0.728372178848,-5.4944084474,0.13591924556,-4.87735396448
3.73797807749,2.06578883217,0.97922395738,-1.56254165904
-4.12241602386,5.30598611174,0.4325286692,-2.3977293536
-4.58281012522,4.66618339131,1.65583338102,-2.42291704816
-4.99320422658,1.39638067089,3.03913809284,-5.76810474272
-8.71359832793,-0.373422049539,4.48244280466,-7.65329243729
-7.33399242929,0.506775230031,4.49574751648,-4.88848013185
-4.29438653064,0.426972509609,1.4690522283,-6.08366782641
-5.214780632,4.66716978918,0.832356940122,-6.82885552097
-2.70517473335,-2.33263293125,-0.854338348057,-6.66404321553
-3.36556883471,-2.85243565168,1.68896636376,-0.839230910093
-1.29596293606,-3.8522383721,2.98227107558,-3.71441860465
2.55080668606,-5.22900436047,-0.595992005819,-3.92497093023
6.62457227959,3.47369280466,-1.48437943486,3.92819913363
-9.02166212688,1.12638996978,-1.4327668639,1.8713691975
-11.0978965334,-3.72091286509,-2.88115429295,-1.46546073864
-3.74413093983,-4.37821569997,-2.23954172199,-0.40229067478
-0.480365346302,-0.29551853484,-2.92792915103,1.96087938908
5.17340024722,-3.26282136972,-4.80631658007,-0.525950547055
-2.95283415926,-2.34012420459,-4.50470400912,4.22721951681
-1.67906856573,-5.70742703947,-3.29309143816,0.200389580668
4.55469702779,-0.654729874339,0.3285211328,1.59355964453
7.79846262132,5.48796729078,1.60013370376,5.12672970839
7.15222821485,6.81066445592,0.841746274713,4.68989977225
2.52599380838,0.49336162104,-0.556641154326,0.933069836115
4.4697594019,0.11605878616,-0.135028583369,4.72623989998
6.01352499543,1.92875595128,-0.0134160124107,3.10940996384
-0.0227094110451,3.36145311641,0.0981965585488,1.7825800277
1.01105618248,3.19415028154,0.639809129505,2.66575009156
-4.81517822399,-6.86315255334,-1.68857829954,-4.07107984458
-7.05141263046,-14.1504553882,-2.26696572858,-8.40790978071
-6.15764703693,-8.24775822309,-1.99535315762,-6.58473971685
4.92611855659,1.30493894204,0.516259413336,-1.67156965299
-0.90011584988,6.10763610717,3.01787198429,3.50160041087
3.14364974364,4.6603332723,2.03948455525,5.39477047473
1.24741533717,-1.01696956259,-0.61890287379,2.3079405386
6.6111809307,-0.00427239746205,-0.947290302833,4.89111060246
0.694946524221,5.00842476767,-2.15567773187,3.74428066632
