-12.7974491279,-10.8910719477,1.95049418604,-18.3839098837
-12.5341576062,-10.3448530489,1.10362493705,-20.1189541178
-15.9808660845,-15.3886341501,2.03675568805,-20.3639983519
-11.8675745628,-19.7324152513,2.34988643906,-20.8590425861
-12.8542830411,-16.6161963525,2.51301719007,-18.5440868202
-13.8209915194,-11.7599774538,4.92614794108,-13.0991310543
-11.2776999977,-9.60375855498,6.71927869208,-13.6841752884
-13.494408476,-8.8775396562,4.90240944309,-15.5192195225
-20.9111169543,-21.2713207574,2.2255401941,-19.9942637566
-19.9778254326,-13.5951018586,2.62867094511,-16.2193079907
-11.1545339109,-1.58888295985,3.05180169611,-6.34435222486
-4.2712423892,1.57733593893,6.60493244712,3.33060354102
-14.3379508675,-10.1764451623,4.23806319813,-13.3744406931
-15.1446593458,-16.0902262635,-5.05880605087,-18.7494849272
-10.4113678241,-10.7340073647,-2.46567529986,-9.36452916132
-4.3780763024,4.33221153406,0.887455451148,2.01042660456
3.8452152193,9.68843043284,-3.57941379784,1.28538237045
5.808506741,8.89464933163,-4.69628304684,6.92033813633
6.1417982627,5.06086823041,-4.74315229583,10.3752939022
7.3950897844,7.50708712919,-3.80002154482,10.8202496681
10.7183813061,13.013306028,-0.646890793816,15.035205434
9.93167282779,20.5995249268,0.286239957191,18.2501611999
14.6449643495,10.0957438255,-1.2306292918,12.6151169658
16.0282558712,-0.638037275676,-3.01749854079,6.42007273164
13.6515473929,7.7081816231,-1.18436778979,11.0650284975
9.8248389146,16.7244005219,0.13876296122,15.6599842634
14.0781304363,19.5706194207,2.37189371223,14.4249400293
9.91142195799,15.9568383194,3.06502446323,10.7598957952
3.02471347969,6.85305721823,2.16815521424,10.0748515611
5.76800500139,10.409276117,4.79128596525,13.719807327
5.54129652309,18.6254950158,5.74441671626,17.2847630928
8.58458804479,23.5917139146,6.44754746726,16.2597188587
15.8878795665,19.0879328134,8.12067821827,18.5946746246
14.7611710882,6.26415171214,5.32380896928,13.5396303905
11.9044626099,12.8703706109,4.78693972029,17.6945861564
5.01775413159,19.7365895097,5.62007047129,19.6995419223
7.78104565328,21.5628084085,8.2832012223,16.5444976882
5.47433717499,15.4190273073,6.73633197331,12.739453454
7.37762869668,5.37524620605,4.11946272431,7.63440921993
1.07092021838,3.57146510483,1.40259347532,6.80936498581
1.19421174008,6.88768400361,0.795724226329,8.41432075169
2.97750326178,11.2339029024,-0.571145022663,8.53927651758
1.10079478347,2.44012180118,-2.70801427166,3.39423228346
-3.30591369483,-5.42365930004,-0.994883520649,0.11918804935
-0.912622173128,-8.71744040126,-1.57175276964,-1.48585618476
-2.27933065142,-1.44122150248,-0.898622018634,-3.64090041888
1.29396087027,2.2549973963,-5.43549126763,0.574055347006
2.35725239197,-4.61878370491,-6.82236051662,1.93901111289
-0.709456086326,-11.2325648061,-6.61922976561,-4.88603312122
1.55383543537,-7.04634590735,-6.86609901461,-3.33107735534
4.38712695707,1.03987299143,-6.6629682636,-0.876121589452
1.41041847876,-2.91390810979,-10.7698375126,-4.32116582357
0.553710000466,-7.43768921101,-8.64670676158,-8.19621005768
-0.362998477838,-11.5014703122,-6.01357601058,-10.5412542918
1.73029304386,-10.9052514134,-6.68044525957,-7.17629852591
2.04358456557,-0.61903251466,-4.57731450856,2.65865723998
1.83687608727,6.36718638412,-3.97418375755,4.88361300586
-0.219832391034,3.78340528291,-0.671053006547,3.78856877175
2.17345913067,-0.680375818316,-0.28792225554,5.54352453763
5.80675065237,1.98584308047,-0.594791504534,7.88848030352
10.9900421741,5.11206197925,-1.02166075353,3.9934360694
5.22333369576,4.32828087803,-1.77853000252,0.438391835287
-2.76337478255,-7.16550022319,-5.19539925151,-6.65665239883
-9.11008326084,-18.5392813244,-7.7022685005,-13.1016966329
-5.42679173915,-22.8630624256,-8.6891377495,-18.1767408671
-7.73350021744,-14.4068435268,-9.91600699849,-15.6117851012
-8.30020869574,-9.50062462805,-8.21287624748,-11.8868293353
-8.07691717404,-13.7644057293,-8.16974549648,-13.2118735694
-14.2536256523,-21.5981868305,-9.82661474547,-15.7369178035
-9.78033413064,-19.2619679317,-8.92348399446,-13.8219620376
-9.51704260895,-10.7357490329,-6.11035324346,-7.14700627175
-2.63375108725,-5.09953013415,-4.90722249245,-2.59205050586
1.38954043445,-2.51331123537,-3.20409174144,-0.937094739975
-0.447168043851,-16.5470923366,-8.66096099043,-9.55213897409
0.266123477842,-13.2708734378,-6.06783023942,-9.2171832082
1.77941499955,-1.62465453902,-3.31469948842,-3.86222744232
4.97270652125,-4.51843564024,-3.89156873741,-3.30727167643
5.30599804295,-5.69221674145,-0.898437986403,-0.232315910547
4.42928956465,-4.31599784267,0.734692764603,4.93263985534
8.04258108635,-0.109778943886,1.53782351561,3.58759562122
4.10587260804,4.46643995489,3.11095426662,5.81255138711
6.38916412975,7.71265885367,4.04408501763,7.21750715299
6.40245565144,4.04887775246,3.66721576863,4.44246291888
5.73574717314,-2.37490334876,3.09034651964,3.11741868476
2.44903869484,-5.04868444998,3.51347727065,3.11237445065
7.51233021654,7.0775344488,2.93660802166,5.83733021653
13.7656217382,10.7337533476,4.08973877266,7.19228598242
10.0589132599,3.65997224637,4.70286952367,5.48724174831
7.26220478164,-4.71380885485,4.54600027468,-0.197802485809
5.19549630333,-1.60758995607,4.49913102568,-0.0228467199231
5.95878782504,9.04862894271,2.62226177669,6.07210904596
2.60207934673,12.8148478415,1.6653925277,8.10706481185
3.53537086843,5.53106674027,3.00852327871,1.97202057773
3.24866239013,-2.06271436095,3.58165402971,-0.353023656382
3.42195391183,2.82350453784,4.41478478072,4.2919321095
9.04524543353,12.0797234366,4.81791553173,8.50688787539
6.91853695524,13.2159423354,5.11104628273,8.26184364127
9.82182847693,10.2721612342,6.71417703374,10.2467994072
4.47511999863,4.17838013297,6.67730778475,11.761755173
-1.04158847967,5.66459903175,6.45043853576,8.57671093893
1.58170304203,10.0508179305,3.50356928676,5.04166670481
1.47499456372,11.9170368293,0.756700037771,3.0466224707
-1.93171391458,6.36325572809,2.17983078878,0.291578236585
-8.27842239288,-1.72052537313,0.842961539785,-4.00346599753
-4.25513087118,-5.02430647435,-2.08390770921,-5.83851023164
-2.94183934947,5.31191242444,1.9892230418,-1.55355446576
-0.308547827779,8.87813132322,2.23235379281,2.35140130013
1.45474369392,10.834350222,5.00548454381,6.18635706601
2.25803521562,3.47056912079,6.79861529482,6.9713128319
4.20132673732,-1.22321198042,2.72174604583,-0.773731402218
1.46461825901,6.95300691835,1.90487679683,5.03122436367
-1.19209021929,13.1892258171,2.09800754784,6.90618012955
1.28120130242,-1.08455528408,0.31113829885,0.931135895438
-3.46550717589,-2.4983363853,3.37426904986,0.396091661325
0.487784345809,-0.862117486518,1.18739980087,5.55104742721
-3.88892413248,0.984101412265,0.380530551873,2.95600319309
-3.06563261079,2.13032031104,0.203661302878,1.20095895898
-2.19234108909,-0.023460790173,-0.483207946114,-1.86408527513
-3.60904956739,-5.47724189139,-0.190077195106,-7.13912950925
-6.40575804569,-7.88102299261,-2.0069464441,-8.64417374336
-0.152466523992,-4.62480409383,-1.15381569309,-4.91921797748
-5.0291750023,-3.11858519504,-1.26068494208,-7.18426221159
-9.54588348059,-7.71236629626,-2.71755419108,-8.85930644571
-9.77259195889,-14.4361473975,-3.76442344007,-11.1243506798
-15.5693004372,-14.1399284987,-2.54129268906,-13.4993949139
-14.9460089155,-9.16370959992,-1.01816193805,-14.0144391481
-13.9427173938,-3.81749070113,-0.945031187048,-13.5294833822
-16.5194258721,-2.95127180235,-0.921900436042,-9.49452761628
5.41215479653,-4.56942223835,-0.589890988376,1.82748546512
12.2922918765,0.673346714226,0.848000995693,3.70949479835
16.1124289565,10.0761156668,0.465892979761,7.64150413158
16.8725660365,15.6788846194,2.42378496383,11.9435134648
17.1127031164,13.0816535719,1.4916769479,11.095522798
16.4128401964,6.50442252451,1.54956893197,8.23753213126
19.3229772764,9.23719147709,5.61746091604,10.6295414645
12.5031143564,7.52996042966,3.30535290011,5.80155079771
18.0132514363,6.04272938224,0.413244884176,2.74356013094
13.9833885163,3.2254983348,0.00113686824443,2.95556946416
5.02352559629,-3.89173271263,0.679028852312,1.63757879739
1.62366267627,-5.01896376005,1.54692083638,-0.420411869385
6.04379975624,3.55380519252,0.754812820451,4.52159746384
9.48393683622,3.09657414509,-2.74729519548,0.483606797066
11.3340739162,-3.50065690234,-5.20940321141,-5.16438386971
1.96421099617,-11.8678879498,-5.24151122734,-5.14237453648
0.554348076148,-14.6951189972,-6.43361924327,-8.27036520325
3.59448515612,-4.06235004462,-5.3757272592,-4.55835587003
-1.77537776391,-3.10958109205,-2.63783527514,-5.9563465368
1.88475931608,-3.83681213947,-1.43994329107,-5.06433720358
-1.18510360395,-5.1440431869,-2.542051307,-2.53232787035
-1.76496652397,-11.2912742343,-3.77415932293,-6.64031853712
1.185170556,-2.38850528176,-2.37626733886,-1.6083092039
-0.804692364021,2.34426367081,-3.77837535479,-1.07629987067
-0.964555284045,-3.20296737661,-5.62048337072,-1.94429053744
-4.50441820407,-7.51019842404,-4.39259138665,-0.912281204215
-9.29428112409,-10.3274294715,-6.52469940258,-8.37027187099
-5.62414404412,1.86533948111,-5.01680741852,-2.44826253776
3.17599303586,3.01810843368,-4.88891543445,-2.21625320453
2.36613011583,-3.29912261375,-5.71102345038,-6.44424387131
-5.70373280419,-7.07635366117,-5.98313146631,-6.64223453808
-6.89359572421,-7.1335847086,-5.18523948224,-9.09022520486
-7.83345864424,1.75918424397,1.21265250183,-6.40821587163
-6.99332156427,9.14195319654,2.1005444859,-0.456206538403
-5.13318448429,3.52472214912,1.48843646997,-1.64419720518
-5.47304740431,2.35749110168,3.78632845403,0.257812128048
-7.47291032434,0.090260054254,3.1942204381,0.779821461274
-7.65277324436,9.56302900683,5.06211242217,1.4318307945
-8.68263616438,5.8857979594,1.65000440624,-4.42615987227
-15.2124990844,0.75856691198,0.507896390312,-6.27415053905
-8.35236200444,-1.74866413545,0.94578837438,1.10785879418
-6.43222492446,5.38410481712,3.97368035845,10.2898681274
-7.47208784448,8.9568737697,4.14157234252,6.03187746063
-1.15195076451,15.0296427223,1.22946432659,7.24388679386
3.24818631547,6.75241167484,1.57735631066,6.07589612709
-5.76167660455,4.32518062741,1.72524829472,2.79790546031
-2.25153952458,2.26794957998,0.733140278793,3.84991479354
-3.2014024446,2.10071853255,0.0310322628629,1.13192412677
-4.45126536462,7.99348748512,1.46892424693,6.94393345999
-3.69112828465,7.1962564377,3.606816231,6.96594279322
-6.82099120467,-4.57097460972,0.294708215069,-2.95204787356
-10.3808541247,-6.87820565715,1.67260019914,-3.96003854033
-0.240717044726,3.48456329542,2.84049218321,2.5019707929
-4.94057996475,8.30733224799,1.69838416728,4.16398012612
-3.24044288477,4.97010120056,3.31627615134,2.93598945935
-4.74030580479,-2.14712984687,1.18416813541,0.477998792578
-11.7201687248,-6.24436089429,-0.587939880519,-3.5999918742
-10.1800316448,0.408408058276,0.0699521035513,-0.33798254097
-6.82989456486,2.32117701085,-2.39215591238,-2.90597320774
4.29024251511,-4.88605403658,-1.08426392831,-3.39396387452
-6.05962040491,-4.83328508401,0.763628055758,1.54804545871
-10.5994833249,0.599483868573,2.20152003983,4.77005479194
-2.19934624496,3.13225282115,1.9494120239,2.02206412516
-5.18920916499,8.58502177372,3.59730400796,2.36407345839
-6.10907208501,2.73779072629,3.40519599203,1.26608279162
-8.25893500503,-6.42944032114,2.5430879761,-3.66190787516
-3.92879792506,-6.75667136857,2.76097996017,-2.11989854193
-5.58866084508,0.696097584005,5.67887194424,-0.617889208706
-12.2485237651,4.33886653658,5.60676392831,0.32412012452
-4.13838668513,-0.518364510855,4.38465591238,-2.62387054225
-12.3882496052,-4.57559555828,7.10254789645,-7.05186120903
-12.3981125252,-5.10282660571,6.83043988052,-4.6298518758
-9.2679754452,2.01994234687,4.20833186459,-2.45784254258
-7.70783836523,8.36271129944,5.08622384865,1.54416679065
-8.85770128525,-3.71451974798,3.13411583272,-3.39382387612
-4.09756420528,-7.19175079541,2.56200781679,-1.00181454289
-4.9674271253,-9.76898184284,0.969899800861,0.120194790332
-4.36729004532,-5.48621289027,-0.18220821507,-5.52779587644
-2.33715296535,-2.9034439377,-1.324316231,-2.35578654322
-0.107015885369,-8.30067498513,-1.51642424693,-4.11377720999
-6.3268788054,-16.4179060326,-3.44853226286,-8.13176787676
-1.94674172542,-14.99513708,-2.0506402788,-5.37975854354
0.933395354557,-6.58236812741,-0.602748294725,-0.41774921031
-1.63646756546,-9.82959917483,-0.744856310657,-8.10573987708
-2.42633048549,-6.34683022226,0.803035673411,-4.92373054386
-10.3161934055,-12.5740612697,1.78092765748,-9.88172121063
-3.05605632553,-12.0212923171,-0.241180358451,-7.0597118774
3.33408075444,-4.58852336455,-1.63328837438,-0.807702544178
-0.695782165589,1.57424558802,-0.485396390313,0.114306789048
-6.69564508562,-3.6029854594,-2.00750440625,-1.89368387772
-7.85550800564,-7.94021650683,-1.32961242217,-3.5616745445
-0.955370925658,-10.1874475543,-1.18172043811,-1.56966521127
-4.95523384569,-0.854678601689,0.886171545962,1.49234412195
-6.81509676571,4.43809035089,0.164063530032,-0.33564654482
-0.984959685731,-5.28914069654,-4.3780444859,-3.37363721159
-1.43482260576,-10.576371744,-2.02015250183,-1.09162787837
-2.71468552577,-6.13360279139,2.84773948224,-2.93961854514
2.7854515542,3.08916616118,2.72563146631,-0.147609211914
4.56558863417,-1.36806488625,-0.816476549624,0.144400121313
-1.18427428586,-0.905295933677,0.851415434445,2.60640945454
0.69586279412,-11.5125269811,-0.500692581485,-1.14158121223
8.6259998741,-11.2497580285,-3.30280059742,-3.03957187901
4.79613695407,-2.00698907596,-2.62490861335,1.21243745422
9.82627403405,9.04577987661,-0.327016629279,5.08444678744
11.426411114,7.96854882918,-1.27912464521,4.18645612067
13.436548194,-0.378682218245,-0.10123266114,5.4184654539
18.176685274,5.58408673434,2.03665932293,14.9504747871
19.956822354,10.8068556869,4.864551307,13.6324841203
13.4769594339,8.12962463948,1.37244329107,7.28449345358
6.62709651391,5.08239359205,-3.43966472486,2.3265027868
6.17723359388,2.44516254462,-1.6917727408,0.138512120031
8.72737067386,1.80793149719,-0.713880756728,1.64052145326
11.0675077538,12.6107004498,1.35401122734,7.54253078648
12.6976448338,15.2934694023,-0.238096788589,9.38454011971
7.92778191379,12.3062383549,-1.88020480452,8.26654945294
3.21791899376,-0.530992692518,-1.58231282045,1.78855878616
-7.52194392626,-2.56822373995,-1.63442083638,-4.93943188061
1.21819315372,1.53454521263,-2.04652885232,-2.89742254739
5.16833023369,2.7773141652,-2.13863686825,-1.80541321416
10.1684673137,2.39008311777,-1.23074488418,-2.64340388093
2.07860439365,-4.08714792965,-2.69285290011,-4.85139454771
1.48874147362,-3.84437897708,-3.66496091604,-4.93938521448
-1.24112144641,2.73838997549,-1.72706893197,-1.85737588125
-1.26098436643,5.80115892806,-2.4291769479,-4.22536654803
-5.45084728645,5.11392788063,-2.57128496383,-4.8433572148
2.68928979352,0.566696833208,-1.87339297976,-4.03134788157
6.7494268735,4.62946578578,-0.405500995694,5.11066145165
9.26956395347,15.6622347383,2.51239098838,16.7526707849
-4.29101017441,-2.35742005814,3.16212209302,1.29317950582
0.0813802417324,-4.56569149422,-4.53132791041,-5.19583217932
-6.20622934214,-12.2939629303,-4.00477791385,-1.51484386445
-9.97383892601,-8.33223436641,-2.44822791728,-1.97385554958
-11.3014485099,3.0294941975,-2.92167792071,6.90713276529
-4.57905809374,10.3412227614,0.174872075853,12.0181210802
-0.146667677611,-0.407048674686,-2.79857792758,3.46910939503
-8.82427726148,0.454679889219,0.717972068987,2.2900977099
-9.37188684534,-4.10359154687,0.154522065553,-1.06891397523
-3.67949642921,0.328137017037,-2.70892793788,3.66207433964
-0.777106013084,5.24986558095,-2.58237794131,9.03306265451
-0.164715596955,3.38159414486,0.354172055253,6.11405096937
1.92767481918,-4.19667729124,-0.789277948181,1.68503928424
-4.89993476468,-3.98494872733,-1.44272795161,-0.523972400888
-1.21754434855,1.80677983657,-0.986177955047,2.59701591398
-1.18515393242,-2.23149159952,-0.51962795848,-4.83199577115
-7.94276351629,-6.13976303561,-1.62307796191,-8.58100745628
-5.71037310016,-11.4080344717,-2.99652796535,-6.42001914141
0.892017315971,-12.0263059078,-3.11997796878,-7.31903082654
5.04440773212,-6.66457734389,-2.27342797221,-8.58804251167
3.57679814824,4.16715122002,0.0831220243526,-0.977054196805
11.3091885644,1.03887978393,-0.68032797908,1.89393411806
9.68157898051,-3.61939165217,-0.623777982515,1.48492243293
9.40396939664,-2.41766308826,-1.05722798595,0.445910747803
8.41635981277,4.56406547565,-0.170677989381,2.89689906267
0.338750228912,10.0457940396,-0.284127992814,-0.222112622459
2.88114064504,11.9575226035,1.47242200375,-0.901124307589
4.88353106117,2.83925116737,-1.58102799968,3.05986400728
3.4359214773,-2.29902026872,1.50552199689,1.55085232215
17.2483118934,7.36270829519,3.21207199345,6.77184063702
18.8907023096,17.7144368591,2.15862199002,10.8928289519
16.7130927257,15.156165423,1.96517198659,7.51381726676
7.36548314184,6.9278939869,3.41172198315,3.97480558162
-1.83212644203,4.58962255081,2.66827197972,0.295793896494
