-16.2383648256,-5.86628997091,7.07359375,-17.7678452035
-14.6241053893,-8.9103973631,5.05040231299,-18.0907703774
-16.0498459531,-12.8645047553,2.90721087598,-22.4836955514
-9.90558651687,-12.4186121475,2.64401943898,-19.0466207254
-5.25132708064,-9.63271953967,5.52082800197,-10.2095458993
-14.2470676444,-4.24682693186,7.17763656496,-14.7324710733
-14.7728082082,-10.7309343241,-0.0555548720513,-24.1753962472
-15.0485487719,-17.6850417162,-2.70874630906,-26.9783214212
-13.9642893357,-14.5691491084,-0.471937746064,-22.4012465952
-12.9500298995,-10.1332565006,-2.40512918308,-19.3041717691
-10.5257704633,-3.86736389281,-1.01832062008,-14.7070969431
-7.63151102704,-1.591471285,0.238487942912,-11.2800221171
-4.55725159081,-3.69557867719,-0.224703494099,-11.122947291
-6.29299215458,-7.38968606939,1.1421050689,-10.465872465
-8.35873271835,-6.38379346157,0.258913631889,-11.4387976389
-3.61447328212,-1.75790085377,-0.254277805121,-8.00172281289
2.92978615411,-3.55200824596,-1.17746924213,-8.52464798685
-7.87595440966,-8.68611563815,-2.27066067914,-11.5075731608
-4.54169497343,-11.7502230303,-2.80385211614,-14.0204983348
-1.0174355372,-2.41433042253,-0.13704355315,-7.12342350874
7.50682389903,1.27156218528,-0.620234990161,-0.6463486827
6.24108333526,4.33745479309,-2.33342642717,-0.319273856659
5.51534277149,-1.0566525991,-1.23661786418,-3.10219903062
2.59960220772,-2.08075999129,-0.0198093011822,-0.805124204582
6.83386164395,3.76513261652,1.16699926181,3.56195062146
9.27812108018,14.4310252243,2.6538078248,10.3090254475
7.68238051641,9.51691783214,1.81061638779,4.79610027354
5.90663995263,6.24281043995,0.297424950786,2.66317509957
2.56089938887,1.09870304776,0.394233513776,1.18024992561
-0.624841174904,1.97459565557,1.24104207677,-1.26267524835
4.18941826132,4.86048826338,-0.982149360236,0.49439957769
3.49367769754,5.70638087119,-1.02534079725,-0.0285255962699
1.21793713378,-0.917726521002,-0.548532234254,-3.19145077023
-4.01780342999,-7.29183391319,-1.43172367126,-2.55437594419
3.00645600624,-2.10594130538,-0.224915108269,7.47269888185
12.0707154425,5.22995130243,2.76189345472,18.1497737079
6.0649748787,2.56584391023,3.90870201772,13.7568485339
-6.06076568507,-5.43826348196,-1.40448941929,0.0939233599638
-3.40650624884,-1.95237087415,-4.1076808563,1.610998186
2.20775318739,2.65352173366,-2.87087229331,10.558073012
7.20201262362,8.76941434147,-3.33406373032,12.9851478381
11.5362720598,12.7953069493,-2.54725516732,14.0522226641
6.87053149608,9.3511995571,-3.19044660433,13.6392974902
7.5047909323,6.97709216491,-1.08363804134,15.1563723162
4.92905036853,7.42298477272,1.02317052165,14.4534471422
3.95330980476,14.5688773805,2.25997908464,17.0305219683
8.42756924099,19.8947699883,3.09678764764,20.5575967943
6.16182867722,8.62066259614,0.863596210631,12.9246716204
6.44608811345,1.33655520395,0.580404773624,9.27174644639
8.06034754968,9.09244781177,1.38721333662,13.2188212724
3.20460698591,9.73834041957,1.0640218996,15.3358960985
9.80886642214,9.24423302738,1.5808304626,14.7729709245
7.02312585837,2.27012563519,1.34763902559,8.30004575055
5.75738529459,2.246018243,2.91444758858,8.91712057659
8.23164473083,7.94191085081,2.58125615158,11.4541954026
4.28590416705,9.45780345862,0.718064714569,12.5012702287
4.22016360328,9.28369606643,-0.775126722441,11.9283450547
3.76442303952,4.73958867424,-0.188318159446,11.4954198807
-2.41131752425,-4.13451871795,-3.15150959645,6.19249470679
-1.37705808802,-2.83862611015,-3.06470103347,4.25956953283
0.377201348201,-0.0527335023289,-3.83789247047,4.78664435887
-6.46853921557,1.29315910548,-2.85108390748,7.1437191849
-0.694279779338,-0.880948286707,-1.29427534449,5.55079401094
-0.840020343108,-8.6850556789,-1.58746678149,2.29786883698
-0.735760906879,-1.83916307109,-0.860658218502,4.93494366302
-2.14150147064,3.85672953672,0.556150344491,5.28201848906
-1.09724203442,1.77262214453,0.0229589074843,3.1290933151
-3.50298259819,0.588514752337,0.099767470474,4.65616814114
-3.26872316196,-2.34559263985,0.526576033466,5.38324296718
2.35553627427,2.24029996795,2.50338459646,8.15031779322
6.4497957105,8.35619257577,2.13019315945,12.2973926193
2.98405514673,11.5120851836,-0.502998277556,13.6544674453
6.22831458296,4.08797779138,-1.86618971456,11.8115422713
6.13257401918,-2.81612960081,-2.52938115157,7.93861709737
8.26683345541,0.0397630070001,-3.10257258858,8.14569192341
13.6410928916,4.70565561481,-4.56576402559,11.8527667495
12.7153523279,5.06154822262,-4.3889554626,9.89984157549
10.5796117641,-0.412559169563,-5.4521468996,8.72691640153
9.11387120033,-1.80666656175,-4.19533833661,9.16399122757
7.73813063656,-0.780773953942,-2.23852977362,8.60106605361
9.47239007279,3.73511865387,-1.41172121062,12.5481408796
11.626649509,7.45101126167,-0.0649126476346,12.9352157057
8.57090894525,3.77690386948,-0.418104084642,9.31229053173
5.41516838148,-4.55720352271,0.0587044783497,5.25936535777
2.19942781771,1.1386890851,1.43551304134,5.5164401838
9.52368725394,7.97458169291,0.972321604335,10.3535150098
9.43794669017,8.67047430072,-0.790869832676,8.20058983588
3.8822061264,1.06636690853,-1.77406126968,2.75766466192
5.21646556263,-4.47774048366,-2.69725270669,2.19473948796
6.41072499886,0.258152124145,-2.6304441437,3.721814314
7.45498443509,5.66404473196,-2.1336355807,5.36888914004
4.53924387132,5.92993733977,-2.45682701771,5.74596396608
2.46350330754,1.50582994757,-2.77001845472,2.78303879212
0.977762743772,-3.34827744462,-0.483209891729,-1.35988638184
1.66202218,-0.9323848368,-0.696401328736,0.147188444196
4.84628161623,2.52350777101,0.360407234257,1.34426327023
3.40054105246,5.51940037882,0.877215797249,3.91133809627
-0.36519951131,1.51529298663,0.684024360238,1.99841292231
-3.84094007508,-5.54881440556,-0.339167076767,-0.264512251648
2.99331936115,-0.61292179775,0.447641486226,1.40256257439
1.09757879738,5.93297081006,0.954450049216,4.22963740043
-2.61816176639,5.35886341787,-1.02874138779,2.68671222647
-2.43390233016,-0.665243974327,-3.02193282479,-1.79621294749
-5.47964289393,-6.42935136652,-2.38512426181,-5.22913812145
-4.7853834577,-1.22345875871,-1.43831569881,-0.762063295413
0.128875978531,4.6124338491,-0.741507135823,1.05501153063
6.24313541476,5.23832645691,-0.334698572828,-0.0879136433341
1.05739485099,0.74421906472,-0.777890009835,-3.45083881729
-0.778345712781,-0.649888327469,-0.431081446844,-2.32376399126
1.01591372345,2.09600428034,0.495727116147,-1.87668916522
-2.78982684032,8.85189688815,1.84253567914,1.31038566082
-4.57556740409,7.45778949597,2.48934424213,-2.34253951314
-6.95130796787,1.08368210377,1.44615280513,-7.1354646871
-5.82704853164,-3.61042528842,2.03296136812,-8.93838986106
-6.80278909541,-6.96453268061,1.21976993111,-11.451315035
-8.14852965918,-3.8786400728,-0.523421505899,-12.534240209
-13.664270223,-6.96274746499,-1.72661294291,-15.1771653829
-15.6800107867,-12.1068548572,-1.97980437992,-19.7200905569
-9.52575135049,-16.3109622494,-0.592995816922,-19.6630157309
-9.38149191426,-11.1250696416,1.11381274607,-16.5659409048
-9.74723247803,-3.45917703375,3.69062130906,-13.4688660788
-7.8329730418,-1.29328442594,4.58742987206,-14.9517912527
-11.7387136056,-5.61739181814,4.26423843505,-16.9247164267
-14.7044541693,-10.3514992103,5.67104699804,-19.4876416007
-10.2401947331,-8.81560660252,6.05785556103,-16.6305667746
-8.04593529688,-6.82971399471,3.85466412402,-14.6034919486
-7.36167586065,-12.1038213869,2.00147268702,-18.9264171226
-5.47741642442,-15.5679287791,2.52828125,-20.3193422965
-1.38692950581,-11.2311736918,-2.38598110466,-2.13135174418
2.18566116555,-7.48041578921,-1.57467505379,-3.29872095884
0.1082518369,-2.70965788657,-2.35336900294,-0.0160901735035
0.0408425082496,-2.18889998395,-1.67206295207,0.306540611838
-4.6765668204,-6.08814208132,-1.58075690121,-4.17082860282
-3.51397614905,-7.9973841787,-2.57945085035,-4.19819781748
-2.8413854777,-5.73662627608,-2.27814479949,-2.17556703214
0.691205193652,2.72413162656,-0.156838748633,-0.282936246795
0.643795864999,5.46488952918,0.0744673022273,-1.07030546145
-3.06361346364,-0.514352568185,0.775773353093,-3.51767467611
-1.77102279229,-1.37359466557,1.92707940395,-1.13504389077
3.86156787905,1.64716323707,0.588385454812,0.59758689457
5.36415855042,5.4079211397,1.28969150567,-0.169782320088
2.63674922176,7.63867904232,1.27099755653,4.70284846525
4.36933989311,4.40943694495,0.382303607392,1.3654792506
1.51193056446,1.22019484758,-0.726390341744,-0.371889964064
-3.76547876418,6.10095275021,1.53491570912,3.78074082128
-0.852888092835,11.5217106528,2.92622175998,5.49337160662
-1.88029742149,14.6424685555,3.56752781084,4.21600239196
-1.92770675013,12.1432264581,6.0088338617,5.2586331773
1.55488392122,9.67398436071,7.40013991256,6.90126396264
4.19747459257,13.8247422633,9.33144596342,7.11389474799
2.43006526392,20.915500166,10.5827520143,8.87652553333
-0.857344064723,16.1462580686,10.0740580651,6.96915631867
-1.35475339337,12.8670159712,10.685364116,3.45178710401
-4.26216272202,9.94777387385,9.88667016686,2.59441788935
-9.12957205068,9.57853177648,11.5079762177,1.24704867469
-5.97698137932,15.8892896791,12.4092822686,3.39967946004
-3.45439070797,15.1600475817,10.4005883194,2.86231024538
-8.62180003662,11.6908054844,10.3218943703,1.53494103072
-7.36920936526,5.351563387,8.87320042117,-0.28242818394
-6.24661869391,5.38232128962,7.74450647203,-1.2997973986
-3.94402802257,8.50307919225,6.47581252289,1.55283338674
-2.76143735122,6.00383709488,3.52711857375,-1.76453582792
-0.948846679858,0.964594997502,2.61842462461,-2.77190504257
-1.75625600851,-1.88464709987,2.48973067547,-1.59927425723
-2.74366533716,-0.423889197242,1.53103672633,-2.67664347189
-0.121074665811,1.48686870538,2.99234277719,-2.13401268655
-4.36848399445,6.95762660801,4.61364882805,0.858618098791
-7.27589332311,0.85838451064,2.80495487891,-2.83875111587
1.54669734825,-0.0208575867291,2.92626092978,2.89387966947
4.0692880196,-1.26009968411,3.35756698063,6.84651045482
-0.0381213090513,2.16065821852,3.0988730315,3.97914124016
4.5444693623,5.04141612115,1.49017908236,4.5317720255
3.95706003365,1.18217402377,1.32148513322,0.184402810841
7.22965070501,0.292931926408,-1.30720881592,3.74703359618
5.86224137635,6.63368982903,-0.585902765062,9.77966438152
10.2848320477,4.16444773166,-3.4145967142,4.45229516686
6.72742271905,-0.344794365716,-4.39329066334,0.714925952207
1.17001339041,-3.30403646308,-4.41198461248,3.58755673755
-0.557395938238,-14.0732785605,-6.57067856162,-5.13981247711
0.0451947331094,-14.9125206578,-5.91937251075,-8.51718169177
0.807785404468,-7.7017627552,-5.79806645989,-3.25455090643
0.0303760758106,-4.90100485257,-5.88676040904,-0.381920121086
-4.26703325284,-13.8702469499,-7.71545435817,-7.08928933574
-4.93444258149,-22.2694890473,-10.4741483073,-12.1566585504
-3.19185191013,-21.8087311447,-11.5828422565,-12.2740277651
2.84073876122,-14.4079732421,-9.54153620559,-3.61139697972
1.00332943257,-10.4572153394,-8.42023015473,-0.508766194378
5.96592010392,-8.2764574368,-9.19892410387,2.45386459096
13.6785107753,-12.9656995342,-9.94761805301,3.2564953763
14.2111014466,-14.3849416315,-10.1663120022,-1.07087383835
14.373692118,-7.13418372893,-7.61500595129,3.37175694699
16.2262827893,-4.1934258263,-5.37369990043,3.98438773233
10.3488734607,-8.00266792367,-3.84239384957,1.58701851767
5.05146413203,-8.04191002104,-1.29108779871,2.35964930301
1.13405480338,-2.84115211842,-2.12978174785,0.192280088353
0.466645474735,0.499605784207,-2.12847569699,2.0149108737
1.84923614608,0.490363686848,-1.31716964612,6.87754165904
4.42182681743,-3.54887841053,-3.34586359527,3.83017244438
-1.09558251121,-8.5481205079,-6.4445575444,0.382803229719
1.51700816014,-6.43736260528,-6.30325149354,0.955434015061
0.059598831489,-0.326604702648,-6.63194544268,-0.481935199598
-1.65781049716,-0.265846800015,-6.00063939182,-1.24930441426
-3.76521982581,-8.41508889739,-7.19933334096,-6.69667362892
-4.14262915446,-14.0643309948,-7.9980272901,-10.0140428436
-1.86003848311,-11.8135730921,-6.58672123924,-8.94141205823
2.41255218824,-6.46281518952,-7.98541518838,-3.91878127289
1.3551428596,-10.2520572869,-9.98410913752,-6.70615048755
0.547733530948,-14.1112993843,-9.33280308666,-10.4435197022
-2.99967579771,-15.4005414816,-10.7614970358,-8.93088891687
-1.21708512634,-12.369783579,-9.92019098494,-7.23825813152
7.565505545,-5.71902567638,-7.83888493407,-1.34562734618
5.80809621635,-3.74826777374,-6.06757888321,1.18700343916
2.9606868877,-7.46750987112,-5.85627283235,-4.0903657755
-4.05672244094,-11.1867519685,-6.63496678149,-5.39773499016
-5.9041317696,-8.22599406586,-4.90366073063,-5.40510420482
-3.56154109824,-1.60523616323,-1.32235467977,-2.88247341948
-3.40895042689,4.12552173939,-0.561048628908,1.35015736587
-7.05635975554,0.0962796420208,0.590257421951,1.37278815121
-10.8037690842,-6.20296245535,0.60156347281,-2.61458106345
-10.7611784128,-3.24220455273,0.762869523671,-3.09195027811
-6.93858774148,-0.591446650091,1.23417557453,-1.98931949277
-4.90599707013,-1.20068874747,0.345481625391,-3.31668870743
-0.953406398781,-4.58993084484,-0.943212323746,-4.57405792208
-7.10081572743,-9.47917294221,-2.05190627289,-7.13142713674
-8.81822505608,-6.87841503959,-1.64060022202,-8.2787963514
-5.84563438473,-1.14765713696,-1.65929417116,-3.50616556606
-0.233043713379,2.24310076567,-0.867988120302,0.466465219281
-1.27045304202,-1.3661413317,-1.48668206944,-0.430903995377
0.772137629327,-7.19538342908,-2.02537601858,-1.15827321004
1.88472830068,-6.98462552644,-0.27406996772,-1.7456424247
6.08731897202,-0.573867623818,-0.732763916858,-0.993011639353
-0.44009035662,4.84689027881,-0.771457865998,0.679619145989
0.452500314728,0.207648181437,-1.82015181514,-1.02775006867
-0.24490901392,-2.00159391594,-1.62884576428,-1.86511928333
6.28768165743,4.01916398669,1.26246028658,1.63751150201
5.75027232878,4.11992188932,0.0837663374441,-1.25985771264
-0.727136999863,4.33067979194,-0.844927611695,-0.0572269273034
2.17545367149,0.86143769457,-0.643621560834,-2.52459614196
2.43804434284,-3.2878044028,0.687684490025,-4.30196535662
1.08063501419,-2.98704650017,0.288990540885,-3.22933457128
1.68322568554,6.74371140246,1.30029659174,3.37329621406
7.66581635689,10.2844693051,1.55160264261,5.9159269994
1.83840702825,6.47522720771,0.442908693469,1.43855778474
0.290997699594,1.34598511033,2.39421474433,0.961188570087
-5.35641162906,2.40674301297,4.36552079519,-1.01618064457
-6.48382095771,5.6075009156,5.19682684605,-0.803549859231
-8.29123028635,5.95825881822,5.56813289691,1.57908092611
-6.728639615,4.53901672085,7.04943894778,-0.548288288548
-3.66604894365,0.879774623478,6.83074499864,-1.51565750321
1.24654172771,10.0105325261,8.44205104949,4.95697328214
6.58913239906,16.9512904287,8.40335710035,9.45960406748
7.44172307041,22.9220483314,11.2046631512,12.4922348528
-0.535686258248,17.822806234,13.9459692021,10.5248656382
1.76690441311,15.9935641366,15.1372752529,9.9074964235
-1.41050491554,16.4543220392,14.2685813038,10.5301272088
-3.01791424419,16.6650799419,12.6398873547,9.73275799418
-4.1584738372,5.175534157,4.60945857557,0.45529796512
-5.18084039095,0.119093658453,1.93555100942,-2.90290923708
-3.9232069447,-8.72734684007,-1.07835655673,-6.33111643929
-5.30557349843,-6.20378733861,-0.15226412288,-7.0293236415
0.482059947819,0.919772162852,0.26382831097,-0.247530843706
-3.46030660593,-1.10666833568,-0.940079255182,-2.46573804591
-6.70267315967,-3.68310883422,0.0960131786633,-4.84394524812
-3.94503971341,-9.08954933275,-0.517894387485,-7.83215245032
-6.06740626716,-3.88598983129,0.248198046364,-6.18035965253
0.510227179097,1.25756967018,0.994290480216,-0.558566854737
-4.00213937465,1.43112917164,2.14038291407,-2.84677405694
-4.46450592839,-3.8353113269,1.68647534791,-4.89498125915
-4.55687248214,-8.40175182543,0.912567781761,-8.38318846136
-1.10923903588,-5.80819232397,1.33866021561,-8.77139566356
-2.58160558964,0.445367177497,1.08475264946,-2.94960286577
3.25602785663,0.758926678966,-1.47915491669,-0.227810067978
0.533661302885,-2.56751381957,-0.623062482842,-3.88601727018
1.41129474914,-2.21395431811,1.71302995101,-2.48422447239
2.48892819539,-2.19039481664,1.69912238486,-0.102431674597
4.01656164164,7.19316468482,1.97521481871,4.6093611232
3.4341950879,2.63672418629,0.351307252553,-2.53884607901
0.821828534157,0.0902836877503,0.267399686403,-3.03705328122
-1.43053801959,-0.916156810788,1.68349212025,1.13473951658
-0.192904573334,-3.02259730932,0.579584554103,-2.27346768563
0.344728872922,-2.92903780785,-0.534323012045,-3.26167488784
-0.117637680822,-4.29547830639,-0.458230578199,-2.81988209004
-5.61000423457,-9.05191880492,-1.36213814435,-6.80808929225
-3.64237078832,-12.8283593035,-2.7460457105,-7.91629649446
-0.824737342053,-11.804799802,-3.89995327665,-9.26450369666
-1.3271038958,-8.25124030053,-4.9838608428,-6.34271089887
-8.30947044955,-9.59768079907,-5.77776840895,-10.0409181011
-4.4118370033,-9.6141212976,-5.0516759751,-9.69912530328
-2.79420355704,-9.15056179614,-3.34558354125,-8.49733250549
-3.50657011079,-9.34700229467,-2.1994911074,-9.1955397077
