4.57434593024,18.771627907,19.8242768895,5.1748619186
4.30298812032,20.2251640325,17.3774575684,0.929290766342
2.96163031039,15.3287001579,16.7606382473,3.52371961408
1.68027250047,9.67223628343,16.6838189262,2.06814846182
8.28891469055,12.5357724089,17.2569996052,0.192577309557
2.85755688062,9.89930853438,15.4001802841,-1.7329938427
3.56619907069,9.38284465987,15.253360963,1.49143500503
7.49484126077,10.6063807853,12.4965416419,0.0358638527741
2.37348345084,-1.24008308917,6.75972232077,-7.51970729949
2.30212564092,0.793453036305,5.52290299968,-8.23527845175
-3.51923216901,2.46698916179,4.93608367858,-11.010849604
-7.23058997893,1.00052528727,3.82926435749,-13.9564207563
-9.04194778885,1.10406141275,6.50244503639,-10.6919919085
-8.08330559878,-1.95240246177,6.6056257153,-9.52756306079
-4.35466340871,-4.74886633629,4.3588063942,-11.9931342131
-2.77602121863,-0.905330210808,2.36198707311,-10.5787053653
-0.807379028556,3.56820591467,1.28516775201,-6.31427651758
7.65126316152,3.05174204015,0.558348430917,5.24015233016
-3.30009464841,10.2252781656,1.22152910982,1.4245811779
-2.99145245833,-7.81118570888,-4.87529021127,-6.54098997436
-1.25281026826,-8.6376495834,-3.98210953237,0.883438873376
2.60583192182,6.06588654207,0.251071146537,11.8978677211
3.85447411189,12.6994226676,-1.36574817456,15.7222965689
3.54311630197,6.49295879304,-4.19256749565,15.5267254166
9.17175849204,14.6064949185,-4.08938681675,21.3111542643
10.7904006821,15.850031044,-5.39620613784,27.0055831121
13.8290428722,17.7535671695,-7.19302545894,27.5500119598
18.1576850623,24.207103295,-6.45984478003,29.4644408075
22.8063272523,26.4006394204,-6.33666410113,38.8088696553
20.3649694424,29.6441755459,-5.52348342222,52.583298503
2.16361163249,23.0477116714,-7.63030274332,37.2877273508
3.75225382257,20.5212477969,-7.48712206441,31.8121561985
6.00089601264,8.65478392236,-5.61394138551,25.9765850462
12.7495382027,9.96832004784,-3.7007607066,17.621013894
7.62818039279,-3.59814382668,-6.6875800277,7.18544274171
5.72682258287,-13.4146077012,-9.37439934879,0.659871589454
0.885464772942,-14.9310715757,-7.75121866989,-2.78569956281
-7.60589303698,-6.79753545023,-8.07803799098,-5.71127071507
-5.66725084691,-9.19399932475,-5.26485731208,-8.57684186733
-6.15860865683,-9.93046319927,-3.20167663317,-9.47241301959
-6.27996646676,-9.61692707379,-8.56849595427,-9.69798417185
-4.43132427668,-13.4333909483,-8.15531527536,-12.7335553241
-3.15268208661,-18.5598548228,-8.01213459646,-17.3391264764
-8.57403989654,-20.7063186974,-8.26895391755,-18.0346976286
-6.22539770646,-23.5427825719,-9.36577323865,-22.1202687809
-3.10675551638,-24.8192464464,-8.93259255974,-23.4858399332
-7.30811332631,-16.4557103209,-5.71941188084,-18.0814110854
-14.3594711362,-8.72217419543,-4.09623120193,-16.9569822377
-7.94082894616,-18.4686380699,-6.74305052303,-19.8025533899
-6.09218675609,-11.9251019445,-2.32986984412,-15.0381245422
-5.49354456601,-5.80156581899,-3.99668916522,-12.0936956945
-15.7849023759,-21.7380296935,-7.04350848631,-22.7092668467
-4.54626018586,-13.864493568,-4.95032780741,-16.714837999
-8.32761799578,-10.6709574425,-2.6571471285,-17.9004091513
-11.3189758057,-21.3374213171,-4.3239664496,-22.1959803035
-5.63033361563,-22.3638851916,-2.88078577069,-19.6215514558
-5.12169142556,-17.5803490661,-2.21760509179,-17.587122608
-8.76304923549,-19.2568129406,-3.27442441288,-22.4426937603
-10.5144070454,-18.0532768151,-2.37124373398,-21.2582649126
-12.2857648553,-20.7997406897,-3.17806305507,-22.6438360648
-12.2471226653,-26.6762045642,-5.58488237617,-24.9194072171
3.17151952481,-9.0426684387,-2.68170169726,-4.55497836934
6.88016171489,-14.8091323132,1.48147898164,1.15945047839
-9.88119609504,-21.0255961877,-0.985340339452,-9.29612067387
-11.342553905,-8.76206006226,-1.79215966055,-11.8016918261
-6.98391171489,-1.91852393678,-2.15897898164,-2.97726297839
-4.96526952481,4.3450121887,-4.09579830274,8.04716586935
-0.406627334738,0.378548314187,-4.10261762383,10.0115947171
-0.387985144662,5.59208443966,-3.14943694493,8.62602356482
1.98065704541,-2.99437943485,-4.99625626602,10.2304524126
2.99929923549,2.70915669062,-4.42307558712,11.7748812603
2.19794142556,1.97269281611,-5.20989490821,10.239310108
5.20658361564,-5.47377105841,-6.27671422931,7.19373895578
8.75522580571,-0.920234932932,-3.3735335504,9.67816780352
0.683867995787,-0.406698807452,-2.2703528715,7.10259665126
7.27251018586,0.0468373180265,-3.03717219259,8.937025499
-0.668847624063,-5.11962655649,-4.88399151369,3.62145434673
-6.32020543399,-1.11609043101,-2.12081083478,3.79588319447
-0.00156324390991,-2.70255430553,-2.07763015588,3.66031204221
2.24707894616,-1.13901818005,-1.42444947697,4.24474088995
-3.23427886376,2.38451794543,-1.12126879807,1.13916973769
-2.38563667369,-4.43194592909,-3.13808811916,-3.06640141457
-6.41699448361,-6.93840980361,-2.90490744026,-5.77197256684
-8.26835229354,-6.04487367813,-0.871726761352,-3.6075437191
-5.94971010346,-6.24133755264,0.521453917552,-2.46311487136
0.588932086612,-2.79780142716,-0.555365403543,1.65131397638
-0.512425723311,2.40573469831,-0.0121847246373,2.27574282412
1.56621646676,-0.610729176205,-1.22900404573,0.440171671857
6.01485865684,9.13280694928,3.10417663317,8.01460051959
5.09350084691,13.4263430748,2.10735731208,11.0790293673
0.972143036986,0.479879200237,0.560537990983,4.15345821507
1.66078522706,8.32341532572,2.98371866989,4.79788706281
5.54942741714,7.6569514512,1.76689934879,6.78231591055
1.47806960721,10.2304875767,2.8800800277,6.40674475829
1.15671179729,3.83402370216,2.5732607066,6.41117360603
5.84535398736,5.66755982764,2.34644138551,7.47560245377
0.993996177436,5.91109595312,3.35962206441,2.4000313015
-3.03736163249,4.5646320786,2.55280274332,2.27446014924
4.78128055758,-3.16183179592,2.00598342222,-1.44111100302
-3.02007725234,0.541704329564,2.34916410113,-0.906682155281
-3.07143506227,0.495240455046,3.68234478003,0.637746692459
-2.25279287219,-0.621223419475,3.22552545894,-0.767824459803
-0.664150682114,-1.197687294,3.55870613784,-4.68339561206
-8.55550849204,-2.52415116852,2.11188681675,-6.22896676433
-9.65686630196,-2.68061504303,2.59506749565,-4.23453791659
-8.34822411189,0.812921082448,4.64824817456,-3.72010906885
-5.50958192181,2.17645720793,4.05142885346,-4.39568022111
-4.22093973174,-5.34000666659,2.54460953237,-8.91125137337
-2.66229754167,-0.646470541109,2.13779021127,-7.85682252563
-4.89365535159,1.58706558437,1.84097089018,-2.9123936779
5.89498683848,11.2706017098,6.18415156908,10.4720351698
9.44362902856,18.3941378353,9.61733224799,10.1764640176
-2.27772878137,-1.27232603919,2.86051292689,-7.67910713468
-0.84908659129,5.03121008629,4.2836936058,-4.05467828694
1.40955559878,6.14474621177,6.1668742847,0.519750560798
4.84819778886,8.06828233725,4.80005496361,2.75417940854
9.97683997893,11.2618184627,4.07323564251,4.00860825627
9.41548216901,5.31535458822,0.936416321418,1.03303710401
6.53412435908,11.7288907137,2.37959700032,6.86746595175
2.97276654916,8.38242683918,1.67277767923,4.41189479949
7.19140873923,13.1559629647,3.23595835813,8.94632364723
0.0100509293079,10.0994990901,1.78913903704,2.73075249497
0.988693119383,4.28303521562,1.76231971594,3.60518134271
4.62733530946,4.4665713411,2.46550039485,7.04961019044
8.00597749953,0.24010746658,2.03868107375,3.15403903818
14.0546196896,7.34364359206,2.38186175266,3.53846788592
3.41326187968,-0.0528202824607,0.585042431563,-3.74710326634
-0.928095930241,3.14071584302,2.29822311047,-1.8026744186
12.2977906977,6.25796511629,4.39859375,10.8796111919
7.68690767488,12.7507333822,4.713503937,13.233844677
8.82602465208,1.44350164806,0.508414124013,9.32807816219
8.87514162929,8.79626991395,-0.0966756889793,7.37231164736
9.88425860649,7.51903817983,0.788234498028,7.93654513253
1.18337558369,2.83180644572,1.10314468504,5.80077861769
-2.36750743911,2.4345747116,1.85805487205,2.56501210286
-0.898390461905,5.89734297749,3.55296505905,1.81924558803
4.2507265153,3.64011124337,3.86787524606,1.4234790732
2.3898434925,5.50287950926,5.18278543307,3.75771255837
1.1789604697,1.18564777514,2.40769562008,3.20194604353
-2.1019225531,-3.46158395898,-0.527394192915,-1.4838204713
-1.5228055759,1.04118430691,-0.372484005908,-0.88958698613
1.53631140131,-2.8460474272,-0.687573818901,-0.575353500964
1.38542837851,-6.73327916132,-0.552663631892,-1.7511200158
0.374545355713,-5.01051089543,0.832246555115,-0.156886530629
3.14366233291,-2.86774262955,0.807156742123,1.97734695454
1.15277931012,-1.52497436366,1.76206692913,2.50158043971
-1.76810371268,7.93779390222,3.36697711614,9.75581392487
3.44101326452,10.3105621681,2.51188730315,6.85004741004
3.91013024172,10.083330434,3.74679749016,8.27428089521
-2.06075278108,-2.27390130012,2.42170767716,5.88851438038
-2.86163580387,2.44886696577,2.68661786417,7.15274786554
1.64748117333,-2.84836476835,0.811528051179,2.41698135071
5.67659815053,-0.615596502466,1.04643823819,0.57121483588
0.79571512773,0.197171763419,1.98134842519,0.335448321046
-2.59516789507,-7.1100599707,0.436258612204,-3.32031819379
-4.00605091787,-9.03729170481,-1.57883120079,-4.54608470862
4.30306605934,-0.874523438924,-1.06392101378,0.77814877655
-0.387816963463,-3.84175517304,-2.06901082677,0.882382261718
2.02130001374,-3.52898690715,-2.74410063977,1.35661574688
7.35041699094,-2.29621864127,-0.0691904527575,5.81084923205
6.62953396814,-0.703450375386,-0.294280265749,6.02508271722
11.0986509453,4.3493178905,0.260629921258,6.38931620239
10.0477679225,3.86208615639,-0.924459891734,5.30354968755
5.24688489975,-1.90514557773,-1.92954970473,-1.95221682728
-0.03399812305,-4.11237731184,-0.794639517719,-7.21798334211
-1.08488114585,-0.809609045958,0.860270669289,-1.82374985694
-2.10576416865,-2.68684078007,-0.464819143703,-2.36951637177
0.123352808554,-3.88407251419,-0.599908956694,-3.21528288661
-4.36753021424,-3.9713042483,-2.52499876969,-5.42104940144
-10.498413237,-3.03853598241,-1.43008858268,-8.20681591627
-11.5892962598,-17.5557677165,-5.97517839567,-15.3925824311
-14.0701792826,-14.4929994506,-5.35026820866,-13.5083489459
-13.9810623054,-8.35023118476,-4.12535802165,-12.1641154608
-10.5619453282,-6.91746291888,-2.67044783465,-11.8198819756
-8.46282835103,-3.27469465299,-2.78553764764,-8.02564849043
-10.4737113738,-6.2819263871,-3.57062746063,-12.5314150053
-6.96459439662,-7.26915812122,-3.10571727362,-12.3971815201
-7.99547741942,-4.57638985533,-1.19080708662,-9.21294803493
-12.5763604422,-2.99362158945,-1.47589689961,-11.3687145498
-11.327243465,-3.48085332357,-1.9509867126,-12.4844810646
-9.55812648782,-11.6180850577,-0.326076525591,-13.6802475794
-11.4090095106,-10.5153167918,0.00883366141716,-10.0460140943
-12.1098925334,-12.3225485259,-2.96625615158,-12.8317806091
-12.5307755562,-7.11978026002,-1.96134596457,-8.97754712392
-14.301658579,-4.58701199414,-2.27643577756,-10.4733136388
-8.77254160181,-6.01424372825,-2.55152559055,-11.8290801536
-6.6334246246,-7.31147546236,-2.37661540354,-10.7448466684
-4.8843076474,-2.67870719648,-0.541705216536,-7.20061318325
-8.4451906702,-3.97593893059,-0.416795029527,-7.82637969809
-10.386073693,-1.54317066471,-0.46188484252,-7.37214621292
-8.3769567158,1.49959760117,-0.416974655513,-5.59791272775
-0.777839738599,1.26236586706,-0.582064468505,-4.04367924258
-0.418722761395,-1.41486586705,-2.0571542815,-7.38944575742
-4.90960578419,2.51790239883,-1.39224409449,-7.28521227225
-6.43048880699,3.43067066471,-0.82733390748,-3.12097878708
-0.551371829788,3.1234389306,-1.17242372047,-1.39674530192
-2.27225485259,2.23620719649,-1.54751353346,-1.23251181675
-2.74313787539,5.02897546237,-1.28260334646,0.501721668421
0.315979101819,5.45174372826,-0.687693159449,-0.434044846412
-4.59490392098,-3.63548800586,-1.69278297244,-3.65981136124
-5.38578694378,-2.47271973997,-0.067872785432,-1.53557787608
-6.43666996658,2.87004852591,1.00703740158,-2.50134439091
-1.82755298938,0.922816791797,-0.138052411417,-5.89711090574
1.81156398783,4.03558505768,0.66685777559,-1.15287742057
5.97068096503,5.04835332357,1.2217679626,4.04135606459
2.12979794223,6.19112158945,1.17667814961,2.71558954976
7.79891491943,11.5338898553,-0.108411663385,8.14982303493
11.1980318966,10.0366581212,-0.553501476377,10.1040565201
8.09714887384,9.29942638711,0.161408710632,7.80829000527
6.28626585104,6.89219465299,-0.133681102361,9.92252349043
10.4853828282,6.84496291888,-0.918770915354,9.7067569756
13.7944998054,9.59773118477,0.906139271654,9.76099046077
13.6536167826,9.26049945065,0.661049458662,10.6852239459
8.80273375985,11.0532677165,0.88595964567,13.0594574311
10.061850737,5.93603598242,0.430869832679,10.1636909163
12.0509677142,5.33880424831,0.0957800196848,9.43792440144
10.2100846915,3.01157251419,0.180690206695,7.1221578866
3.57920166865,10.2143407801,1.5456003937,7.68639137177
10.7983186459,0.627109045963,-1.27948941929,4.59062485694
3.37743562306,-0.640122688153,-2.77457923228,2.07485834211
7.30655260026,0.472645577731,-2.14966904528,3.63909182727
3.64566957746,0.725413843615,-2.89475885827,1.93332531244
7.28478655466,-0.931817890498,-3.49984867126,-0.32244120239
5.51390353187,-3.35904962461,-2.18493848425,1.01179228278
1.38302050907,-0.526281358725,-1.49002829724,0.0360257679458
9.94213748627,1.73648690716,-2.43511811023,2.25025925311
9.32125446347,4.19925517304,-1.41020792323,3.51449273828
9.27037144067,3.71202343893,-1.05529773622,6.46872622345
1.19948841787,5.12479170481,-0.340387549211,6.79295970861
5.98860539508,2.8875599707,-1.1454773622,6.55719319378
5.80772237228,5.21032823659,0.299432824804,7.57142667895
2.29683934948,8.23309650247,1.75434301181,9.63566016412
7.32595632668,2.08586476835,1.56925319882,5.97989364929
7.01507330388,4.45863303424,2.59416338583,6.47412713445
0.154190281086,7.34140130012,3.01907357284,9.25836061962
3.21330725829,7.21416956601,2.11398375984,11.4125941048
8.35242423549,7.6369378319,1.35889394685,9.85682758996
4.19154121269,5.91970609778,1.08380413386,10.0010610751
3.66065818989,2.55247436367,2.01871432087,6.40529456029
5.5397751671,-2.07475737045,2.15362450788,0.649528045458
-6.8911078557,1.88801089544,4.15853469488,1.48376153063
-6.0019908785,-0.129220838677,5.18344488189,1.98799501579
-11.1828739013,-5.26645257279,2.5683550689,-2.83777149904
-4.6137569241,-4.79368430691,1.83326525591,-2.55353801387
-3.11463994689,-5.84091604102,1.30817544291,-2.4993045287
-5.70552296969,-5.81814777514,0.843085629924,-2.51507104354
-11.2764059925,-8.16537950925,-0.482004183068,-6.00083755837
-3.62728901529,-5.97261124336,-0.437093996061,-8.5366040732
1.96182796191,-5.40984297748,-0.0221838090529,-7.01237058803
-2.82905506088,-6.56707471159,-0.827273622046,-6.08813710287
1.89006191632,-1.20430644571,0.847636564964,-2.5839036177
-10.9808211065,-9.04153817983,-0.297453248029,-8.40967013253
-5.93170412928,-4.18876991394,0.907456938978,-5.54543664736
-3.07258715208,-2.80600164805,2.63236712599,-3.66120316219
-7.16347017487,-7.65323338217,1.95727731299,-6.01696967703
-6.33435319767,-6.38046511628,2.0421875,-7.39273619186
-3.93363372092,6.15110101746,-6.71483284884,0.408978924412
-10.5709140954,2.18357137545,-7.47786451658,-1.92566911967
-5.64819446987,0.0860417334407,-6.23089618431,-3.31031716376
-1.26547484435,1.52851209143,-5.89392785204,-3.46496520784
-2.74275521882,9.03098244943,-2.83695951978,0.77038674807
1.14996440671,1.52345280742,-4.58999118751,-2.33426129602
1.00268403224,-0.184076834586,-5.60302285525,-4.4989093401
-5.05459634224,2.54839352341,-3.83605452298,-1.54355738418
-5.48187671671,5.0408638814,-3.99908619072,1.15179457173
-2.56915709119,-0.60666576061,-4.58211785845,-4.03285347236
-8.22643746566,-1.15419540261,-4.47514952619,-4.69750151644
-6.29371784013,1.82827495538,-4.50818119392,-3.26214956053
-7.06099821461,1.65074531337,-2.74121286166,-1.30679760461
-3.63827858908,1.77321567136,-1.38424452939,0.458554351304
-0.505558963556,0.665686029355,-2.43727619712,-0.826093692782
0.307160661974,1.63815638735,-3.83030786486,-0.600741736866
-5.3501197125,-3.11937325466,-4.1933395326,-1.33538978095
-5.50740008698,-4.37690289666,-2.56637120033,1.99996217496
-1.97468046145,-3.76443253867,-3.41940286807,-0.224685869123
4.73803916408,0.0380378193186,-2.8724345358,1.14066608679
-2.2392412104,-0.149491822685,-1.64546620353,5.88601804271
6.84347841513,-0.697021464694,-1.15849787127,5.49136999862
10.4461980407,6.0554488933,1.918470461,8.39672195454
-1.38108233382,5.12791925129,3.66543879326,6.99207391045
-5.21836270829,3.62038960928,3.27240712553,4.27742586637
-1.75564308276,5.01285996728,3.17937545779,5.66277782228
-1.61292345724,4.64533032527,2.30634379006,5.8081297782
-3.85020383171,1.74780068326,2.79331212232,1.49348173411
-0.477484206185,2.24027104126,3.15028045459,2.01883369002
-1.52476458066,-1.92725860075,1.68724878685,0.834185645939
-0.512044955136,1.01521175724,2.51421711912,4.48953760185
2.08067467039,-1.95231788476,1.05118545138,2.16488955777
0.563394295918,-5.42984752677,-1.01184621635,1.14024151368
1.16611392144,-7.74737716878,-0.0548778840875,-0.664406530401
2.86883354697,-6.91490681079,-0.207909551822,0.300945425513
1.2615531725,-3.14243645279,1.23905878044,2.38629738143
-3.04572720197,-0.319966094798,2.07602711271,1.63164933734
-2.95300757645,2.28250426319,3.19299544498,2.77700129326
2.00971204908,2.84497462119,3.60996377724,6.20235324917
7.1024316746,4.46744497918,4.0769321095,7.86770520509
5.45515130013,2.79991533717,2.24390044177,2.553057161
-0.622129074345,3.99238569516,1.85086877404,3.22840911692
4.29059055118,2.95485605315,1.7778371063,1.37376107283
0.723310176705,-2.53267358885,1.30480543857,-1.88088697126
2.97602980223,2.74979676914,1.28177377083,2.57446498466
6.64874942776,-0.617732872863,1.58874210309,0.179816940576
-0.298530946711,1.28473748513,2.41571043536,-0.01483110351
7.48418867881,-1.05279215688,3.16267876763,-1.0594791476
9.26690830434,-0.0803217988832,4.20964709989,0.535872808319
7.72962792986,-0.247851440894,5.21661543216,1.99122476424
5.16234755539,-2.2553810829,6.17358376442,1.59657672015
7.01506718092,-2.89291072491,5.83055209669,-0.00807132393675
-1.16221319356,-5.70044036692,4.79752042895,-2.77271936802
-4.01949356803,-7.13797000892,4.12448876122,-4.64736741211
-6.0267739425,-6.17549965093,5.23145709348,-6.98201545619
-1.19405431698,-8.62302929294,4.22842542575,-9.37666350028
-5.75133469145,-7.32055893494,4.10539375801,-8.45131154436
-9.66861506592,-5.87808857695,4.64236209028,-6.70595958845
-6.9758954404,-5.64561821896,4.27933042254,-7.17060763253
-4.47317581487,-10.823147861,2.25629875481,-11.2752556766
-6.60045618935,-10.990677503,1.27326708707,-9.2799037207
-1.71773656382,-12.438207145,1.74023541934,-7.75455176479
0.424983061705,-11.775736787,2.5172037516,-10.3891998089
-0.752297312767,-10.073266429,3.15417208387,-11.233847853
-3.63957768724,-7.450796071,3.73114041614,-7.19849589705
-3.70685806171,-8.06832571301,0.618108748398,-8.02314394113
-3.25413843619,-5.77585535501,1.60507708067,-7.03779198521
3.31858118934,-1.36338499702,4.19204541293,-1.8624400293
4.53130081487,5.01908536097,5.6790137452,1.67291192661
-0.495979559608,0.731555718965,3.68598207746,-1.72173611747
5.20674006592,0.384026076958,2.81295040973,1.32361583844
6.94945969144,3.43649643495,2.86991874199,3.51896779436
10.282179317,11.6289667929,5.77688707425,9.47431975027
14.3748989425,14.6314371509,6.84385540652,12.7896717062
19.407618568,14.3039075089,6.21082373879,16.5950236621
12.8803381936,11.4963778669,4.01779207105,11.190375618
25.3330578191,11.1288482249,4.59476040332,11.8857275739
14.9257774446,8.40131858291,2.95172873558,7.46107952985
9.24849707013,3.9237889409,1.65869706785,2.50643148576
4.40121669565,5.6762592989,1.96566540011,4.01178344168
8.53393632118,7.02872965689,2.22263373238,3.87713539759
5.40665594671,10.3612000149,2.70960206464,3.4624873535
-0.110624427769,3.98367037288,0.366570396907,-2.63216069058
-0.687904802242,-0.523859269135,-2.34646127083,-3.45680873467
-1.29518517672,-3.00138891114,-2.05949293856,-5.42145677875
7.49753444881,-0.278918553151,-1.3725246063,-2.10610482284
7.27025407434,4.10355180484,-2.83555627403,0.849247133079
-0.347026300133,1.16602216284,-2.16858794177,-0.0154009110065
-0.814306674609,-2.80150747917,-3.0216196095,-1.24004895509
-5.08158704908,-0.249037121175,-2.68465127724,0.645303000823
-6.99886742356,1.48343323682,-2.13768294497,0.600654956737
-0.446147798029,-0.454096405192,-5.4007146127,0.00600691265208
3.8265718275,-2.9216260472,-5.11374628044,0.0813588685687
-4.45070854698,-3.62915568921,-3.91677794817,-1.70328917552
-4.39798892145,-7.98668533121,-5.01980961591,-3.4879372196
-3.19526929592,0.565785026782,-1.91284128364,-0.0125852636884
-3.6625496704,-5.86174461523,-4.30587295138,-1.72723330777
2.74016995513,-4.48927425723,-3.46890461911,-4.03188135186
-1.72711041935,-6.33680389924,-2.64193628685,-4.96652939594
0.97560920618,-5.43433354125,-3.40496795458,0.76882255997
-0.671671168293,-3.72186318325,-4.66799962232,-2.00582548411
-1.74895154277,-1.72939282526,-3.91103129005,-4.1604735282
2.23376808276,0.853077532731,-3.80406295779,-1.83512157229
1.56648770829,-1.21445210928,-3.42709462552,-0.979769616371
4.55920733381,0.158018248716,-2.14012629326,3.13558233954
12.5619269593,2.15048860671,-0.46315796099,3.28093429546
-3.23535341513,2.9629589647,-0.0861896287279,-0.473713748626
2.06736621039,-2.8545706773,-2.92922129646,-2.27836179271
4.39008583592,-5.06210031931,-2.96225296419,-2.1130098368
-4.81719453856,-3.21962996132,-1.37528463193,0.082342119118
-9.39447491303,-0.147159603326,-1.62831629967,-0.342305924967
-6.71175528751,-5.88468924533,-4.0013479674,-4.04695396905
-3.19903566198,-5.05221888734,-2.75437963514,-2.85160201314
-1.07631603645,-6.75974852934,-6.46741130287,-6.48625005722
-3.23359641093,-13.4172781714,-8.6604429706,-12.5208981013
-7.2808767854,-8.46480781336,-5.11347463834,-9.89554614539
-6.96815715987,-6.38233745537,-3.53650630607,-4.49019418948
-9.69543753434,-5.75986709737,-2.93953797381,-3.69484223357
-6.11271790882,-4.14739673938,-0.992569641543,-1.02949027765
-3.87999828329,5.54507361861,1.92439869072,6.12586167827
-1.59727865777,9.6675439766,3.40136702299,8.03121363418
-4.34455903224,13.2000143346,5.64833535525,8.68656559009
-6.93183940672,14.9124846926,4.34530368752,9.78191754601
3.24088021881,7.74495505058,1.21227201978,5.18726950192
-5.69640015566,3.55742540857,0.849240352047,2.24262145784
-4.60368053013,6.28989576657,2.07620868431,5.46797341375
-3.77096090461,10.0923661246,0.843177016577,3.72332536967
-7.50824127908,9.07483648255,-0.00985465115809,4.62867732558
-0.129371366274,2.30640988373,-1.46908793605,6.51337936046
-1.26443663019,6.07669648989,-0.114480005956,5.04591349455
-1.25950189411,-2.90301690395,-2.14987207586,-2.11155237137
3.30543284197,-6.23273029779,-3.78526414577,-2.09901823728
-3.90963242194,-4.22244369162,-2.25065621567,-1.29648410319
-4.01469768586,-5.96215708546,-1.27604828558,-3.8939499691
1.54023705022,-0.151870479298,-0.741440355481,2.06858416498
3.13517178631,3.33841612686,-1.46683242539,7.89111829907
10.9901065224,7.24870273302,-0.422224495289,10.8836524332
2.18504125847,13.8489893392,2.83238343481,11.2561865672
-6.03002400545,8.58927594535,2.6069913649,8.76872070133
0.454910730641,11.8995625515,5.481599295,9.52125483542
6.94984546672,14.6298491577,8.36620722509,6.53378896951
4.4447802028,10.9901357638,9.47081515519,10.3563231036
2.92971493889,9.69042236999,8.17542308528,11.9788572377
-9.86535032503,0.820708976156,2.24003101538,0.75139137177
-6.37041558895,5.47099558232,4.06463894547,3.73392550586
-0.935480852862,11.1912821885,6.20924687557,8.44645963994
-1.29054611678,2.67156879464,3.27385480566,1.17899377403
-9.0356113807,8.3318554008,7.46846273576,1.10152790812
-12.1306766446,0.932142006965,5.05307066585,-3.44593795779
-12.8657419085,-2.48757138688,2.98767859595,-9.14340382371
-10.7108071724,-0.177284780711,3.20228652604,-6.90086968962
0.0841275636376,5.29300182545,4.38689445614,-2.94833555553
-3.86093770028,3.84328843161,3.01150238624,-1.85580142144
-0.456002964198,3.80357503777,1.39611031633,0.456732712641
