-2.01004723836,-12.6445239826,0.904832848836,-7.03454215117
-4.76011416177,-13.2286136639,-0.855512697995,-7.89630502083
-5.25018108519,-6.15270334531,1.88414175517,-3.8680678905
-0.660248008597,-9.60679302669,1.09379620834,-6.17983076016
2.89968506799,-6.09088270807,1.97345066151,-4.86159362983
-3.67038185542,-3.41497238944,3.42310511468,-3.1733564995
-7.45044877883,-8.80906207082,2.11275956784,-8.48511936916
-7.71051570224,-9.2531517522,0.942414021013,-8.85688223883
-8.83058262565,-7.19724143357,2.67206847418,-6.3886451085
-4.11064954906,-4.95133111495,1.19172292735,-6.87040797816
-1.00071647248,-12.1654207963,-3.08862261948,-11.2221708478
2.46921660411,-11.2995104777,-2.15896816632,-8.4239337175
4.7291496807,-10.9736001591,-2.68931371315,-4.61569658717
4.32908275729,-9.01768984046,-3.25965925998,-5.20745945683
5.55901583387,-5.59177952184,-1.57000480681,-5.9792223265
3.14894891046,-2.51586920321,-0.480350353644,-1.12098519616
8.35888198705,-3.12995888459,0.869304099524,-1.81274806583
18.7988150636,-6.60404856597,2.24895855269,1.3254890645
8.78874814023,-8.40813824735,1.89861300586,-1.81627380517
-6.00131878318,0.217772071279,-0.141732540972,2.30196332517
-10.4713857066,5.3036823899,-0.092078087805,4.5702004555
-5.66145263,6.13959270852,0.0575763653642,7.41843758584
-2.95151955342,4.04550302715,2.27723081853,1.79667471617
-2.86158647683,6.09141334577,4.7768852717,2.2249118465
2.57834659976,9.23732366439,4.98653972487,5.43314897683
5.65827967635,5.85323398302,3.92619417804,1.48138610717
5.90821275294,3.24914430164,1.4558486312,-1.1203767625
1.99814582952,1.82505462026,0.175503084371,-2.59213963216
4.70807890611,5.79096493888,1.05515753754,2.49609749817
8.1780119827,10.1868752575,0.684811990708,5.7643346285
2.67794505929,6.49278557613,0.854466443875,4.03257175883
3.32787813587,3.94869589475,2.45412089704,1.40080888917
1.74781121247,10.2646062134,3.56377535021,4.6090460195
3.82774428905,8.620516532,2.84342980338,0.987283149836
-2.40232263436,6.22642685062,0.173084256548,2.65552028017
-7.05238955777,6.19233716925,-1.33726129028,-1.4462425895
-3.07245648118,5.57824748787,0.752393162883,-1.77800545916
-0.472523404595,6.95415780649,-0.107952383949,-1.07976832883
-3.352590328,2.99006812511,0.711702069219,-0.551531198496
0.557342748583,7.35597844373,0.941356522387,2.26670593183
1.14727582517,4.59188876236,-0.588989024446,1.02494306217
-3.70279109824,0.647799080984,-0.839334571278,-2.7468198075
0.45714197835,6.63370939961,-1.54968011811,1.42141732284
-4.57292494506,0.469619718231,-4.51002566494,-1.83034554683
1.37700813153,2.78553003685,-3.69037121177,3.4478915835
2.92694120812,4.32144035547,-1.35071675861,3.07612871384
-0.823125715295,3.4573506741,-1.65106230544,2.03436584417
-4.46319263871,4.79326099272,-1.33140785227,2.2226029745
-1.58325956212,4.93917131134,-2.0517533991,6.46084010484
1.99667351447,14.15508163,-1.19209894593,8.69907723517
7.18660659106,3.62099194859,-4.64244449277,5.1973143655
5.68653966764,4.29690226721,-2.8727900396,6.81555149583
5.49647274423,2.92281258583,-2.99313558643,0.233788626167
2.20640582082,2.37872290446,-2.84348113326,2.3220257565
-2.74366110259,4.22463322308,-1.76382668009,4.36026288684
-0.753728026,2.0505435417,0.555827773073,2.62850001717
-2.92379494942,5.38645386033,1.61548222624,4.6867371475
0.996138127175,4.35236417895,0.375136679409,3.29497427784
-0.45392879624,5.94827449757,0.794791132578,8.77321140817
2.65600428035,4.6141848162,-0.715554414254,5.0714485385
3.16593735694,0.520095134816,-1.12589996109,2.99968566884
-1.41412956647,2.71600545344,1.03375449208,7.85792279917
7.42580351012,3.29191577206,-1.43659105475,7.5961599295
3.2457365867,1.55782609068,-3.43693660158,4.81439705984
6.75566966329,2.21373640931,-1.50728214842,4.31263419017
8.30560273988,6.47964672793,-0.177627695247,5.9508713205
4.34553581647,-0.144442953446,-0.677973242079,6.17910845084
-0.134531106942,3.39146736518,0.591681211089,7.84734558117
-1.07459803035,0.457377683801,-1.38866433574,4.9055827115
4.13533504624,-3.15671199758,-3.47900988257,1.62381984184
2.37526812282,-2.58080167896,-2.76935542941,3.15205697217
0.405201199414,-2.99489136033,-3.85970097624,3.8102941025
-1.064865724,-7.80898104171,-2.91004652307,-1.93146876716
4.32506735259,-1.18307072308,-1.0603920699,-0.353231636829
-2.82499957082,5.84283959554,0.959262383265,2.9850054935
0.824933505766,2.07874991416,3.16891683643,3.75324262384
6.61486658235,4.66466023278,5.4385712896,10.4914797542
6.08479965894,3.7105705514,5.06822574277,11.7897168845
-2.90526726447,6.02648087003,2.34788019594,9.85795401483
-5.33533418788,3.13239118865,2.6075346491,6.84619114517
-5.75540111129,3.61830150727,2.93718910227,2.6944282755
-3.5654680347,-0.685788174102,-0.58315644456,-3.59733459416
0.994465041884,-1.14987785548,-1.44350199139,-4.50909746383
0.17439811847,-0.393967536853,-1.70384753822,-0.650860333499
-2.16566880494,-0.118057218235,-2.65419308506,1.09737679684
-3.86573572835,-1.22214689961,-3.37453863189,-0.574386072829
-4.28580265176,-3.62623658099,-4.72488417872,-1.6561489425
-5.31586957518,-8.15032626236,-3.86522972555,-0.0179118121669
-5.93593649859,-5.90441594374,-2.98557527238,-3.93967468183
-12.816003422,-2.80850562512,-1.71592081922,-7.2414375515
-7.56607034541,-1.14259530649,-1.14626636605,-2.85320042116
-4.60613726882,-1.59668498787,-0.91661191288,-2.84496329083
-4.60620419223,-0.200774669251,-0.766957459712,-0.0367261604952
-4.55627111565,-0.274864350627,-0.867303006545,-2.33848903016
-1.51633803905,-7.578954032,-2.93764855338,-5.97025189983
-2.58640496247,-3.07304371338,-3.25799410021,-1.6920147695
-3.31647188588,-8.86713339476,-3.77833964704,-6.31377763916
-5.61653880929,-11.5612230761,-3.54868519387,-10.3255405088
-9.7566057327,-7.39531275751,-3.2390307407,-8.5073033785
-6.66667265612,-6.79940243889,-6.04937628754,-7.84906624816
-4.73673957953,-5.62349212027,-2.56972183437,-4.83082911783
-9.87680650294,-2.14758180164,0.969932618799,-1.0825919875
-7.21687342635,1.65832851698,1.13958707197,-3.37435485717
-9.64694034976,-1.5957611644,0.619241525135,-5.15611772683
-8.88700727317,0.720149154226,3.2888959783,-4.0378805965
-1.79707419658,1.11605947285,4.95855043147,-3.61964346617
-1.81714111999,0.701969791473,2.88820488464,-4.28140633583
-2.41720804341,3.3978801101,2.27785933781,1.5368307945
-1.26727496682,4.92379042871,2.90751379097,2.66506792484
-1.44734189023,2.90970074734,2.69716824414,3.18330505517
5.86259118636,4.25561106596,1.88682269731,2.7215421855
-0.237475737053,0.781521384586,1.85647715048,-3.24022068417
4.91245733953,-0.792568296791,0.566131603647,0.128016446171
6.49239041612,4.47334202183,0.405786056814,7.1062535765
5.52232349271,4.92925234045,0.655440509982,4.34449070684
0.00225656929979,1.83516265908,0.64509496315,-1.81727216283
1.07218964589,-1.9489270223,0.594749416318,-3.1690350325
-2.45787727752,-0.283016703677,2.12440386949,-3.01079790216
-0.727944200935,-8.45710638506,0.794058322655,-7.11256077183
7.27198887565,-4.11119606643,1.30371277582,-2.65432364149
1.20192195224,-4.00528574781,1.96336722899,-5.51608651116
7.82185502883,-4.37937542918,2.95302168216,-5.78784938083
4.98178810542,-4.98346511056,-0.0273238646741,-5.8696122505
4.11172118201,-1.68755479194,0.502330588494,-0.751375120162
2.17165425859,-1.81164447331,-0.158014958339,0.156862010172
8.25158733518,-1.5057341547,2.18163949483,-0.394900859497
12.3415204118,-2.45982383607,2.811293948,0.303336270834
9.98145348836,-3.29391351745,3.12094840117,0.621573401171
11.7453597384,1.56578125,2.52007630814,1.43455668604
9.1416360614,-1.91975885826,0.184186819035,-0.5630482913
6.88791238442,-4.57529896653,-1.48170267007,-1.62065326864
8.54418870744,-2.4508390748,0.112407840826,-2.94825824598
1.04046503046,0.0636208169308,1.43651835172,-1.97586322332
4.41674135347,-0.961919291334,1.83062886262,0.546531799344
5.92301767649,4.6925406004,4.74473937351,4.01892682201
19.9392939995,8.23700049213,6.04884988441,10.1613218447
12.0555703225,8.84146038386,4.2929603953,6.08371686733
9.51184664554,0.595920275591,1.4870709062,-2.41388811002
9.27812296856,-0.269619832674,1.76118141709,-1.44149308735
9.30439929158,2.59484005906,2.28529192799,0.63090193531
9.5306756146,2.97929995079,2.89940243888,2.49329695797
5.71695193761,7.29375984252,5.18351294978,1.56569198063
-0.626771739368,-0.361780265746,2.93762346068,-5.21191299671
0.539504583649,-5.74732037402,0.0817339715713,-6.73951797405
-4.46421909333,-3.10286048228,-1.04415551753,-3.35712295139
1.73205722968,-5.53840059055,-1.40004500664,-6.75472792873
4.0383335527,-2.60394069882,-0.895934495743,-1.27233290606
2.36460987572,-2.14948080709,-2.67182398485,0.200062116597
-6.38911380126,-9.52502091535,-4.34771347395,-8.32754286074
3.09716252175,-4.91056102362,-3.19360296306,-7.26514783808
-1.41656115523,-4.57610113189,-1.30949245216,-7.45275281542
-10.3102848322,-8.62164124016,-0.985381941266,-11.1703577928
-6.95400850919,-4.00718134842,-0.78127143037,-1.7479627701
-5.44773218617,-3.22272145669,-2.55716091947,-1.35556774744
-10.1814558632,-1.82826156496,-3.95305040858,-2.48317272478
1.58482045986,-0.573801673228,-4.38893989768,-3.67077770212
3.08109678288,-1.25934178149,-4.69482938679,-3.70838267946
-11.4426268941,-0.0248818897599,-2.72071887589,0.224012343202
9.48364942891,0.419578001969,-2.686608365,1.79640736587
0.239925751932,-2.0359621063,-2.5724978541,-4.24119761148
-2.23379792505,1.79849778543,-1.14838734321,-1.34880258881
-10.477521602,-4.50704232284,-1.70427683231,-6.18640756615
0.138754720985,-1.9025824311,1.05983367858,-4.44401254349
-11.784968956,5.63187746063,3.74394418948,4.23838247917
0.821307367019,8.33633735236,3.88805470038,8.12077750183
-7.84241630996,3.2207972441,0.952165211271,0.913172524492
-4.88613998694,5.86525713583,1.24627572217,2.91556754715
-0.119863663927,4.23971702756,0.790386233061,5.24796256981
3.52641265909,-1.09582308071,-2.02550325604,0.190357592473
-8.64731101789,-3.55136318898,-1.30139274515,-1.02724738487
-3.08103469487,-0.0569032972453,-0.107282234252,2.11514763779
-2.71475837185,-1.44244340551,0.396828276643,0.817542660454
-10.9584820488,2.25201648622,3.94093878754,4.10993768312
-3.22220572582,1.02647637795,1.55504929843,2.07233270578
-7.9759294028,4.11093626968,2.31915980933,5.90472772844
-3.47965307978,5.97539616142,2.22327032023,7.0371227511
-8.05337675677,4.70985605315,0.64738083112,4.58951777376
-4.98710043375,3.56431594488,-0.178508657984,3.33191279642
-1.96082411073,2.87877583661,2.11560185291,2.45430781908
-11.9045477877,2.21323572835,0.619712363807,-0.513297158257
-9.35827146469,0.0976956200757,-1.9161771253,-2.7109021356
-5.43199514168,0.10215551181,-2.8420666144,-0.43850711294
5.09428118134,1.97661540354,1.21204389649,1.94388790972
-20.6494424956,-2.14892470472,0.636154407389,-2.15371706762
-11.0531661726,-0.874464812994,-0.229735081716,0.748677955045
-8.14688984961,0.229995078738,-0.26562457082,2.14107297771
-2.68061352659,-1.79554502953,-1.17151405993,0.573468000366
-7.06433720357,0.218914862202,-0.84740354903,1.56586302303
-8.30806088056,-3.66662524606,-2.94329303813,-1.03174195431
5.21821544246,3.28783464567,-2.56918252724,10.7606530683
5.09449176548,2.1322945374,-2.85507201634,11.063048091
6.7307680885,-0.0332455708667,-1.59096150545,7.38544311367
-0.532955588485,0.331214320864,1.14314900545,5.49783813633
1.10332073453,8.9856742126,4.32725951634,8.33023315899
-7.94040294245,5.81013410433,0.621370027238,9.06262818165
2.76587338057,-0.905406003938,-4.01451946187,6.81502320432
13.9721497036,-1.31094611221,-3.74040895097,3.96741822697
-7.9215739734,1.35351377952,-2.54629844007,1.51981324964
13.2247023496,0.777973671255,-1.17218792918,0.312208272298
-8.31902132736,0.762433562988,-1.02807741828,-2.98539670504
-1.72274500434,-0.533106545277,-0.173966907389,-0.583001682382
-8.53646868133,0.841353346455,2.67014360351,1.32939334028
3.98980764169,0.195813238188,-0.285745885598,0.87178836294
12.2160839647,-1.42972687008,-1.7316353747,1.5641833856
-1.02763971228,0.62473302165,-0.357524863807,-3.74342159174
-16.4013633893,-5.87080708662,-1.40341435291,-5.94102656908
3.92491293376,-1.61634719489,2.18069615798,1.58136845359
-6.95881074322,2.20811269685,2.63480666888,0.403763476243
-11.8425344202,-5.34742741142,-0.821082820225,-4.38384150109
-2.05625809719,1.40703248031,-0.74697230933,-4.64144647843
3.88001822583,-2.74850762796,-3.57286179843,-3.52905145577
-7.02370545115,-9.87404773622,-8.58875128754,-8.00665643311
0.932570871868,-9.59958784449,-2.08464077664,-9.64426141045
5.34884719488,-9.16512795276,-1.76053026575,-6.50186638779
0.455123517902,-5.63066806103,-1.07641975485,-3.33947136513
-2.51860015908,-2.9462081693,1.56769075604,-0.717076342469
3.56767616394,-2.89174827757,-1.05819873306,1.66531868019
12.803952487,-2.66728838583,-2.88408822217,0.167713702853
-3.20977119003,3.1971715059,-0.83997771127,1.21010872551
1.43650513299,2.41163139763,-2.59586720038,-0.877496251826
2.72278145601,5.50609128936,0.71824331052,4.33489877083
-2.59094222097,-1.5994488189,0.192353821416,-1.3427062065
-7.08466589795,0.485011072829,1.49646433231,3.75968881616
-2.87838957494,0.579470964563,2.91057484321,3.06208383882
5.95788674808,4.4039308563,3.5246853541,1.53447886148
-11.8958369289,2.99839074802,-0.111204135002,1.87687388414
6.37043939412,-3.00714936024,-2.13709362411,-2.3707310932
12.4767157171,-1.57268946851,-2.17298311321,0.101663929461
-2.37700795985,-3.55822957678,-2.51887260232,-2.77594104788
21.9392683632,2.09623031496,-1.21476209142,1.21645397478
-6.95445531381,2.28069020669,1.53934841947,-0.621151002557
-17.5881789908,-1.51484990158,1.97345893037,-6.7087559799
0.83809733222,-0.0303900098479,0.107569441266,-4.63636095723
9.22437365524,2.25406988188,1.19167995216,-0.403965934576
-2.25935002174,5.40852977362,2.47579046306,2.22842908809
3.84692630128,1.50298966535,0.739900973952,4.61082411075
-3.70679737571,0.637449557078,-0.375988515152,2.65321913341
1.77947894731,2.45190944881,-0.471878004258,1.14561415607
4.35575527033,5.62636934055,1.19223250664,2.54800917873
0.312031593345,4.58082923228,0.706343017533,1.49040420139
9.07830791636,1.12528912401,0.960453528429,0.832799224052
6.04458423938,0.209749015743,2.75456403932,2.47519424671
5.6508605624,3.92420890747,4.17867455022,3.80758926937
5.76713688541,4.97866879921,4.31278506112,4.37998429203
21.1534132084,7.48312869094,3.20689557201,7.1423793147
-3.63031046855,7.01758858267,2.19100608291,4.65477433736
-0.904034145529,-2.8279515256,-0.0848834061981,-0.962830639983
-4.91775782251,0.596508366132,1.3592271047,1.88956438268
19.4485185005,-3.91903174213,0.113337615593,-2.14804059466
6.13479482352,0.6054281496,0.817448126488,-4.255645572
9.29107114654,1.56988804133,0.241558637384,-1.87325054934
2.38734746956,-1.59565206694,0.47566914828,-2.44085552668
-16.6563762074,-4.2111921752,0.129779659174,-4.09846050402
0.519900115592,-6.15673228347,-1.58610982993,-6.27606548136
1.86617643861,-5.39227239174,-0.951999319035,-7.1136704587
-8.89754723837,-9.11781250001,-0.317888808139,-10.941275436
-5.23718749999,-10.4341388081,4.81067950581,2.21513444767
-3.69107283464,-11.368811573,2.31374090139,-1.78940999245
-0.214958169283,-8.2934843378,3.05680229697,0.746045567426
-12.2388435039,-7.86815710263,2.36986369254,1.55150112731
-0.282728838571,-9.16282986747,3.09292508812,1.29695668718
0.69338582678,-11.1275026323,1.7159864837,0.332412247066
-11.3304995079,-12.0921753971,1.08904787928,-1.02213219305
15.5756151575,-9.07684816196,2.82210927486,0.363323366826
-12.3682701772,-10.4615209268,1.81517067043,-2.3912210733
-0.212155511803,-9.54619369163,0.548232066011,-3.58576551342
-4.70604084645,-10.9308664565,0.241293461589,-5.62030995354
-9.30992618109,-10.0555392213,0.244354857166,-8.75485439366
-2.90381151574,-8.07021198612,0.317416252744,-3.64939883378
-4.50769685039,-9.61488475095,-1.16952235168,-4.9039432739
38.138417815,-8.38955751579,0.193539043899,-1.70848771402
-5.81546751968,-6.91423028062,1.25660043948,-0.133032154143
-14.5993528543,-7.66890304545,-1.07033816494,-2.70757659426
-5.50323818897,-9.66357581029,-1.50727676937,-3.54212103438
-2.04712352361,-7.98824857512,-2.26421537379,-5.59666547451
-4.86100885826,-10.58292134,-3.75115397821,-5.85120991462
7.07510580709,-5.16759410478,0.231907417367,-0.205754354749
5.52122047245,-4.77226686962,1.37496881294,-1.26029879487
-2.5226648622,-14.5169396344,-3.51196979148,-10.234843235
-14.0565501968,-8.52161239928,-2.0989083959,-9.47938767511
8.30956446851,-9.97628516411,-3.23584700032,-6.97393211523
-3.38432086614,-1.91095792895,-0.572785604745,-1.48847655535
-0.0082062007823,0.254369306222,-1.90972420917,-3.16302099547
-3.63209153543,-0.660303458611,0.42333718641,-3.68756543559
-7.00597687007,-1.12497622344,-2.36360141801,-6.91210987571
-8.32986220472,-3.87964898828,-2.65054002243,-4.09665431584
11.3162524606,-1.53432175311,-1.83747862686,-1.78119875595
1.79236712599,0.321005482056,-1.52441723128,-0.955743196075
6.54848179134,1.43633271723,-1.2013558357,-2.98028763619
-5.6154035433,5.13165995239,0.751705559877,-2.06483207632
-5.74928887795,6.77698718756,2.74476695545,2.42062348356
0.596825787408,3.60231442273,1.04782835103,2.32607904344
13.8029404528,3.28764165789,0.340889746611,5.58153460332
3.91905511812,2.71296889306,-0.686048857812,-2.2430098368
-10.0348302165,1.90829612823,-2.78298746223,-6.29755427692
-0.108715551178,-0.466376636603,-1.71992606666,-6.44209871704
-14.4126008858,1.02895059856,0.00313532892142,-2.64664315716
-15.6464862205,-2.65572216627,0.346196724498,-1.26118759728
-2.64037155511,2.9796050689,2.95925812008,-0.395732037407
-8.43425688976,7.33493230407,2.25231951565,1.53972352248
-25.3181422244,0.0502595392354,-2.03461908877,-7.13482091765
-3.36202755905,3.0855867744,-0.391557693189,-4.56936535777
12.1640871063,4.22091400957,-1.54849629761,-4.35390979789
-7.70979822834,6.86624124474,-0.155434902034,-0.84845423801
10.236316437,14.7515684799,3.68762649354,5.06700132187
0.842431102366,10.5268957151,3.00068788912,4.21245688175
-1.23145423228,17.5922229502,5.8937492847,12.5479124416
1.08466043308,15.1275501854,2.69681068028,9.00336800151
10.3607750984,15.7828774206,2.85987207585,8.39882356139
12.2768897638,18.9982046557,3.02293347143,12.1242791213
17.2430044291,18.9335318909,2.78599486701,11.3097346811
15.6291190945,13.4088591261,2.60905626259,7.17519024103
3.24523375985,9.13418636124,2.01211765817,5.4506458009
4.2413484252,9.10951359641,1.10517905374,5.30610136078
4.99746309055,12.8648408316,3.44824044932,1.79155692066
7.39357775591,17.5901680667,5.3313018449,9.69701248054
5.48969242126,15.0354953019,4.31436324048,12.1924680404
-8.95419291338,8.08082253708,0.697424636055,2.8479236003
4.70192175197,11.2361497722,1.08048603163,5.25337916018
8.62803641733,14.0914770074,1.22354742721,6.31883472006
17.3441510827,14.8068042426,-0.023391177212,7.45429027994
-7.37973425196,11.0521314778,-1.98032978163,5.56974583982
4.30638041339,19.0074587129,0.522731613944,9.6752013997
0.28249507874,8.26278594809,-3.20420699048,4.29065695958
-6.06139025591,9.19811318325,-4.4911455949,1.33611251946
-15.4152755905,3.32344041842,-6.72808419932,-4.14843192066
-3.7291609252,5.99876765359,-3.92502280375,1.22702363921
-10.4130462598,1.95409488876,-6.94196140817,-5.76752080091
2.30306840551,2.70942212393,-4.44890001259,-5.28206524103
-1.70081692913,1.35474935909,-4.48583861701,-5.33660968115
-6.81470226378,4.16007659426,-4.39277722143,-1.43115412127
1.24141240157,2.55540382943,-2.77971582586,-2.26569856139
12.0175270669,4.16073106459,-2.21665443028,3.06975699849
17.6236417323,7.02605829976,1.3864069653,6.51521255837
12.2797563976,12.0513855349,2.61946836088,6.66066811825
22.645871063,14.8267127701,3.43252975645,11.2561236781
7.78198572835,8.65204000526,-0.00440884796808,4.861579238
-1.7918996063,9.70736724043,3.19865254761,8.96703479789
4.75421505906,7.8026944756,0.541713943187,6.90249035776
8.69032972441,6.50802171077,-0.525224661234,5.42794591764
-8.88355561024,4.54334894593,-1.10216326566,-2.15659852248
-6.89744094488,2.3486761811,1.52089812992,-1.7611429626
-2.72132627953,4.51400341627,0.0239595254989,2.90431259728
1.48478838583,-1.50066934856,-4.19297907892,-0.230231842841
-0.849096948819,0.804657886605,-4.00991768335,-0.43477628296
-0.332982283464,1.13998512177,-4.35685628777,3.15067927692
3.26313238189,1.31531235694,-3.46379489219,5.3361348368
5.80924704724,3.42063959211,-1.73073349661,1.33159039668
-7.2946382874,-3.62403317273,-2.84767210103,-2.92295404345
-3.46852362205,-0.878705937561,-2.34461070546,1.01250151644
3.89759104331,3.25662129761,-1.87154930988,7.52795707631
-3.32629429134,-0.358051467225,-2.3184879143,3.56341263619
5.81982037401,4.37727576794,1.06457348128,8.38886819607
16.0059350394,4.95260300311,-0.602365123146,12.364323756
6.86204970472,2.69793023828,-3.50930372757,8.12977931583
16.9581643701,-3.13674252656,-4.12624233199,4.34523487571
1.35427903543,-3.96141529139,-2.80318093641,2.47069043559
8.64039370079,4.86391194378,-0.290119540835,4.89614599547
11.3465083661,-2.31076082105,-5.56705814526,1.78160155535
4.50262303149,-4.32543358588,-4.73399674968,1.77705711523
3.08873769685,-2.80010635071,-3.1609353541,-1.10748732489
8.1848523622,-1.17477911555,-3.77787395852,3.03796823498
14.7709670276,0.64054811962,-3.46481256295,4.66342379487
11.3070816929,4.97587535479,-1.53175116737,4.43887935474
13.2531963583,4.82120258996,-1.25868977179,6.80433491462
6.73931102362,-3.67347017488,-3.80562837621,0.449790474504
9.62542568897,-4.54814293972,-2.25256698063,-2.06475396562
6.04154035433,-4.30281570454,0.360494414944,-2.30929840574
-3.10234498032,-8.52748846938,-0.946444189479,-4.86384284586
-7.03623031496,-5.42216123421,-1.2333827939,-4.95838728598
-7.44011564961,-3.92683399904,2.58967860168,-3.6229317261
-12.6740009843,-14.9015067639,2.26273999725,-12.1274761662
-0.7178863189,-18.3461795287,0.505801392832,-11.1020206063
-13.1317716535,-17.7908522935,3.52886278841,-13.6365650465
-10.8756569882,-17.8355250584,1.83192418399,-12.2311094866
-8.77954232284,-16.0701978232,3.11498557956,-11.1256539267
-22.7034276575,-16.514870588,4.27804697514,-11.6201983668
-5.87731299213,-17.6995433529,6.07110837072,-9.90474280695
-18.7111983268,-15.7142161177,4.0941697663,-10.8292872471
-19.6050836614,-9.24888888253,7.04723116188,-8.10383168719
-8.76896899607,-8.40356164737,6.65029255745,-5.08837612731
-1.37285433071,-9.5182344122,5.73335395303,-6.10292056743
-13.9967396654,-9.94290717703,5.13641534861,-4.31746500755
-12.190625,-6.09757994186,5.78947674419,0.927990552329
-2.85627180232,-3.72288880813,0.994378633716,-3.76361555233
-5.86126038614,-10.9637968092,1.10818394067,-10.4068780043
-13.80624897,-11.4847048102,2.12198924761,-10.0701404562
-15.8712375538,-14.9956128113,-0.994205445436,-11.5734029081
2.75377386239,-11.1465208123,0.039599861514,-9.49666536006
-1.81121472143,-8.9374288134,-0.466594831537,-7.38992781199
-6.00620330525,-10.7083368145,0.427210475413,-8.09319026392
-15.5811918891,-11.5092448155,3.01101578236,-8.69645271586
-11.7661804729,-9.93015281656,1.33482108931,-8.73971516779
-6.77116905672,-8.77106081761,-0.15137360374,-6.68297761972
6.34384235946,5.57803118134,3.25243170321,4.75375992835
-1.27114622436,-5.24287681972,-0.723762989842,0.91049747642
2.76386519182,-0.733784820768,2.33004231711,3.99723502448
6.95887660799,2.82530717818,4.52384762406,7.12397257255
-4.80611197582,0.384399177125,2.33765293101,-0.0292898793778
4.90889944035,5.81349117608,2.10145823796,2.33744766869
-10.8160891435,5.14258317502,5.61526354491,3.02418521676
-8.14107772729,1.92167517397,2.80906885186,0.0109227648281
-4.53606631111,0.910767172914,3.0828741588,-3.46233968711
-10.6910548949,-8.21014082814,-2.70332053425,-10.925602139
-22.2960434788,-6.09104882919,-0.859515227296,-8.57886459097
-10.3510320626,-4.86195683025,2.18429007965,-5.2521270429
-12.1660206464,-0.302864831297,2.9580953866,-3.35538949483
-7.28100923022,-0.483772832355,3.63190069355,-3.88865194677
-16.945997814,-1.76468083341,2.1657060005,-7.0219143987
-8.44098639787,-2.09558883446,0.66951130745,-7.15517685063
