-12.8507085756,-5.12199854649,-2.56471293605,-11.8984702035
-9.96181946415,-5.6766693371,-3.27097360832,-10.4199632908
-10.7429303527,-12.0413401277,-5.16723428059,-13.5114563782
-14.3840412413,-13.5360109183,-3.08349495285,-15.2929494655
-6.62515212988,-14.1306817089,-4.05975562512,-13.4344425529
-5.68626301845,-5.99535249952,-4.88601629739,-8.45593564022
-4.51737390702,-5.47002329012,-4.74227696965,-8.80742872756
-6.34848479559,-8.82469408074,-5.89853764192,-10.9989218149
-4.33959568416,-14.5393648713,-5.48479831418,-12.9604149023
-6.14070657273,-15.2240356619,-5.19105898646,-14.7319079896
-4.22181746132,-8.75870645255,-5.73731965872,-8.31340107695
-1.95292834989,-5.00337724316,-2.02358033099,-7.7948941643
-7.38403923846,-10.2980480338,-2.52984100325,-10.5963872516
-4.25515012704,-11.0927188244,-3.10610167552,-8.71788033899
0.88373898439,-8.67738961498,-2.81236234779,-5.60937342634
2.54262809582,0.137939594417,-0.858623020053,-1.83086651368
1.81151720724,6.40326880381,0.225116307676,2.66764039897
5.35040631867,1.2185980132,-3.43114436459,3.20614731162
4.4792954301,-2.7560727774,-4.41740503686,1.30465422428
1.26818454152,-6.30074356801,-2.17366570912,-2.04683886307
-0.772926347046,-1.51541435861,-2.38992638139,-0.388331950417
-0.854037235622,6.41991485078,-0.866187053656,5.06017496223
-4.5151481242,4.35524406016,1.37755227408,0.748681874888
-9.90625901277,1.70057326956,1.47129160181,1.19718878754
-2.25736990134,2.00590247896,2.44503092954,2.6456957002
1.30151921008,3.78123168835,2.13877025728,2.13420261285
0.350408321508,6.55656089774,0.652509585008,3.4327095255
-3.52070256707,0.911890107142,-0.483751087257,0.461216438156
-2.51181345564,-6.70278068347,-1.33001175952,-1.46027664919
-7.89292434421,-2.67745147408,1.69372756821,-0.941769736539
-5.32403523278,4.20787773532,1.56746689594,3.63673717612
-1.98514612136,5.44320694471,-0.148793776327,5.42524408877
-1.49625700993,7.43853615411,2.81494555141,7.61375100142
-2.49736789851,-1.0061346365,1.76868487914,4.22225791407
-2.84847878708,-0.460805427108,-0.507575793126,3.91076482673
7.30041032435,7.18452378229,1.80616353461,6.00927173938
2.73929943577,12.1898529917,3.92990286234,8.22777865204
9.9381885472,7.83518220107,1.92364219008,8.49628556469
7.97707765863,5.34051141047,1.61738151781,9.59479247734
9.67596677005,5.65584061986,1.09112084554,10.95329939
12.6348558815,11.9211698293,3.11486017327,13.0818063026
9.82374499291,14.4064990386,3.13859950101,13.1503132153
7.43263410433,13.231828248,4.35233882874,13.278820128
4.62152321576,6.39715745744,5.05607815647,9.12732704061
11.0804123272,8.05248666683,5.7698174842,11.0458339533
7.99930143861,12.2378158762,4.50355681194,14.6943408659
10.77819055,14.8131450856,3.30729613967,12.2828477786
8.62707966147,9.82847429501,3.5410354674,6.62135469122
10.3759687729,2.2838035044,2.38477479514,3.40986160388
-1.08514211568,5.1191327138,3.16851412287,1.68836851653
6.29374699575,12.8844619232,4.3622534506,7.74687542918
8.40263610717,9.60979113259,3.74599277833,8.12538234183
6.0315252186,2.85512034198,4.23973210607,3.43388925449
5.36041433003,-0.32955044863,1.2034714338,2.94239616714
5.92930344144,-0.0142212392311,0.297210761535,4.82090307979
2.19819255287,3.32110797016,1.24095008927,5.35940999245
3.7370816643,4.86643717955,1.424689417,4.7379169051
4.90597077573,-0.218233611049,0.478428744736,1.73642381775
1.33485988715,-2.09290440166,1.53216807247,2.45493073041
1.82374899858,-0.617575192264,1.7359074002,1.13343764306
4.82263811,0.507754017126,0.359646727935,-0.488055444286
5.18152722144,9.65308322652,0.253386055665,3.33045146837
0.70041633286,4.60841243592,1.8471253834,1.94895838102
-2.27069455571,-1.22625835469,2.23086471113,2.10746529367
-2.56180544429,2.17907085471,2.93460403887,4.13597220633
1.91708366714,6.33440006409,4.0583433666,4.78447911898
0.755972778563,8.82972927349,2.45208269433,6.35298603163
5.04486188999,6.86505848289,0.745822022065,5.75149294429
4.25375100142,-0.129612307726,0.729561349799,3.12999985694
3.00264011284,0.395716901672,2.25330067753,2.50850676959
1.52152922427,2.30104611106,3.53704000526,3.51701368225
-1.10958166431,6.30637532046,2.560779333,5.5055205949
-0.790692552881,3.85170452985,1.75451866073,2.91402750756
-1.03180344144,-1.04296626076,1.91825798847,1.86253442021
3.70708566997,-2.06763705136,1.9319973162,3.30104133286
3.6659747814,4.68769215803,2.42573664393,6.64954824551
9.09486389283,6.95302136743,3.76947597166,6.28805515817
8.00375300425,2.28835057682,3.2232152994,3.58656207082
-0.687357884315,-3.67632021379,1.39695462713,-0.204931016528
2.54153122711,-4.3209910044,3.01069395486,0.193575896126
6.09042033853,2.324338205,3.6644332826,0.84208280878
1.75930944996,2.32966741439,1.12817261033,0.640589721434
7.32819856139,0.894996623785,-0.0480880619361,1.39909663409
2.83708767281,-2.10967416682,1.2256512658,0.30760354674
3.11597678424,-0.674344957428,0.769390593527,-1.32388954061
3.24486589567,2.12098425197,0.863129921261,0.714617372047
-0.216244992909,3.91631346136,2.546869249,1.1631242847
0.322644118518,0.921642670757,1.59060857673,-3.61836880265
2.32153322995,-5.08302811985,0.19434790446,-6.11986188999
-3.06957765863,-6.17769891045,0.0580872321952,-4.74135497734
-8.0906885472,-0.562369701067,0.891826559928,-2.14284806469
2.36820056423,-2.71704049167,-1.84443411234,-5.38434115203
1.23708967565,-6.18171128228,-3.94069478461,-6.63583423938
-3.88402121292,-10.9863820729,-4.38695545687,-7.03732732673
-5.90513210149,-13.3710528635,-3.61321612914,-11.8188204141
-5.37624299007,-5.0257236541,-1.18947680141,-10.1203135014
-6.75735387865,-3.2803944447,0.554262526326,-8.66180658877
-5.25846476721,-4.54506523531,-0.491998145939,-7.50329967611
-4.86957565579,-13.0197360259,-1.55825881821,-8.61479276346
-5.90068654437,-12.7444068165,-1.92451949048,-10.4062858508
-4.46179743294,-2.65907760713,-2.43078016274,-7.47777893815
-5.71290832151,-3.30374839773,-1.86704083501,-6.1992720255
-2.44401921008,-7.16841918835,-3.13330150727,-6.22076511285
-0.695130098655,-5.75308997895,-0.399562179544,-1.01225820019
-3.59624098723,-5.87776076955,3.65417714819,-2.24375128754
-10.5473518758,3.62756843984,0.597916475926,-4.47524437489
-10.2584627644,4.99289764923,-1.00834419634,-1.45673746223
-1.50957365295,0.858226858625,-1.24460486861,-1.07823054958
1.21931545847,-6.32644393198,-3.39086554088,-3.95972363693
1.5482045699,-3.28111472259,-3.57712621314,1.04878327572
0.707093681325,1.25421448681,-4.29338688541,-1.41270981162
-0.424017207246,0.349543696204,-3.49964755768,-3.10420289897
-3.71512809582,1.98487290559,-1.01590822994,0.584304013686
-4.7562389844,-0.57979788501,-1.67216890221,0.672810926339
-2.20734987297,-4.26446867562,-1.33842957448,-0.308682161009
3.72153923845,4.36086053378,0.435309753255,4.73982475165
1.93042834989,4.70618974317,-2.01095091901,6.6383316643
-0.790682538689,2.90151895256,-1.33721159128,3.39683857695
-6.71179342727,-1.94315183804,0.0365277364544,0.625345489605
-2.21290431583,-2.36782262865,-0.989732935814,-1.51614759774
-4.6940152044,1.43750658075,0.0240063919227,-3.07764068509
-8.37512609299,2.40283579013,-1.31225428034,-1.93913377244
-2.27623698156,-1.25183500047,-3.44851495262,-3.12062685978
1.68265212987,-4.98650579107,-2.54477562488,-3.70211994713
3.41154124129,-4.58117658168,-2.99103629715,-2.94361303447
1.53043035272,-2.04584737228,-3.29729696942,-0.755106121822
-2.51068053585,-0.590518162899,-1.97355764168,-1.35659920917
-3.04179142442,-2.7551889535,-1.80981831395,-2.06809229651
-1.50928415697,-8.46839389535,0.0384956395283,1.79922238373
-5.97174252654,-3.70990294818,1.00237513733,-0.564398490427
0.685799103885,5.96858799899,2.41625463513,5.44198063542
-1.06665926569,9.42707894617,3.09013413294,7.38835976127
-4.54911763527,4.82556989334,4.64401363074,3.91473888711
-6.77157600484,-0.85593915949,2.52789312854,0.66111801296
-3.58403437442,-2.61744821232,0.0217726263472,-0.492502861192
-1.456492744,1.13104273485,1.10565212415,3.04387626466
1.59104888643,4.79953368202,2.78953162195,7.6802553905
3.90859051685,4.06802462919,1.65341111975,7.15663451635
1.31613214728,-1.99348442364,-0.732709382442,3.0930136422
4.1736737777,-0.0249934764724,1.80117011536,4.88939276804
4.03121540813,9.2234974707,6.47504961316,10.0157718939
7.53875703855,13.2919884179,6.25892911097,9.51215101974
4.64629866897,8.82047936504,6.17280860877,8.17853014558
2.1438402994,6.17897031221,5.46668810657,8.34490927143
7.49138192983,0.0174612593837,2.67056760437,5.38128839728
2.43892356025,0.755952206557,0.804447102175,2.01766752312
3.14646519067,1.91444315373,-0.621673400023,1.64404664897
4.91400682111,4.0629341009,1.08220609778,3.67042577482
3.45154845153,2.29142504807,1.35608559558,4.70680490066
4.82909008195,5.55991599524,1.33996509339,8.91318402651
11.3566317124,10.2084069424,1.16384459119,8.62956315236
6.4941733428,8.25689788958,-1.08227591101,5.8059422782
1.73171497323,4.57538883675,-1.4583964132,6.43232140405
5.72925660365,-0.856120216078,-1.9445169154,2.1787005299
3.05679823407,-0.657629268913,-2.5906374176,-2.68492034425
5.8743398645,0.750861678258,-3.6367579198,-2.83854121841
7.54188149492,1.66935262543,-5.842878422,-1.73216209256
1.76942312535,-4.6421564274,-4.15899892419,-4.22578296671
-2.07303524423,-8.70366548023,-2.34511942639,-6.56940384087
-3.87549361381,-6.82517453306,-4.57123992859,-7.56302471502
-1.99795198338,-2.89668358589,-0.167360430783,-5.00664558917
-0.440410352952,2.38180736129,0.446519067016,-2.22026646333
-6.97286872253,-2.80970169154,-1.64960143518,-5.70388733748
-3.62532709211,-7.39121074438,-0.925721937376,-6.92750821163
1.04221453833,-5.5127197972,-0.211842439574,-0.611129085786
-1.76024383125,-1.28422885003,-1.40796294177,-0.174749959939
1.18729779917,2.22426209714,-0.894083443967,1.15162916591
2.0748394296,0.382753044309,0.0497960538341,3.12800829175
4.28238106002,-5.39875600852,-0.226324448362,0.964387417602
4.16992269045,-0.0602650613509,1.94755504944,4.97076654345
9.07746432086,2.97822588582,2.28143454724,5.24714566929
7.2650059513,3.64671683299,-0.374685954954,2.55352479514
7.57254758172,0.455207780164,-1.30080645715,2.49990392099
4.25008921215,-3.94630127267,-2.03692695935,4.02628304683
6.17763084257,-6.0778103255,-1.45304746155,0.722662172682
6.01517247299,1.86068062167,0.430832036254,-0.810958701471
4.71271410341,3.26917156884,-1.68528846594,0.835420424375
1.06025573384,-2.16233748398,-1.90140896814,-4.51820044978
-4.22220263573,-4.51384653681,-1.35752947034,-6.54182132393
-5.23466100531,-4.28535558964,-0.123649972535,-6.15544219808
-2.73711937488,-0.126864642472,0.240229525269,-4.62906307224
-8.52957774446,-2.5283736953,-0.205890976929,-9.47268394639
-10.902036114,1.39011725187,-1.38201147913,-7.24630482054
-6.23449448361,-7.82139180096,-3.09813198132,-10.2799256947
-9.97695285318,-7.59290085379,-2.64425248352,-12.1735465688
-9.77941122276,2.45559009338,-0.580372985718,-5.367167443
-9.76186959234,0.69408104055,-2.60649348791,-7.68078831716
-11.6943279619,-6.76742801228,-2.47261399011,-9.84440919131
-13.9067863315,-9.56893706511,-1.14873449231,-7.01803006546
-7.02924470106,-6.75044611793,0.805145005495,-7.75165093962
-10.0917030706,-3.20195517076,1.8590245033,-6.19527181377
-7.10416144021,-2.79346422359,-2.7170959989,-8.23889268792
-8.60661980978,-6.37497327643,-2.6032165011,-10.8325135621
-13.8890781794,-10.5564823293,-2.14933700329,-13.8561344362
-12.8915365489,-9.72799138208,-3.2154575055,-10.4997553104
-3.86399491852,-1.56950043491,0.208421992309,-5.01337618453
-5.83645328809,-0.871009487739,1.15230149011,-5.82699705869
-8.07891165766,-3.27251854057,1.65618098792,-1.95061793284
-5.27137002724,-9.10402759339,-0.129939514281,-2.50423880699
1.54617160319,-6.86553664623,-0.996060016481,-6.06785968115
-4.42628676639,0.912954300948,0.637819481322,-2.3714805553
-4.94874513597,1.98144524812,3.42169897912,-4.62510142945
-6.05120350554,-5.77006380471,1.10557847693,-8.23872230361
-9.18366187511,-10.6015728575,0.769457974733,-6.66234317776
-9.58612024469,-8.34308191037,0.823337472535,-6.18596405191
-4.96857861427,-5.2845909632,0.877216970337,-4.49958492607
-4.15103698384,-1.72610001603,0.181096468139,-1.40320580022
-5.05349535342,-0.627609068855,1.33497596594,0.813173325629
-4.02595372299,-1.70911812169,4.01885546374,-2.33044754852
4.77158790743,-0.210627174514,2.68273496155,-1.20406842268
2.84912953786,3.45786377265,0.78661445935,-0.457689296831
0.766671168283,8.81635471983,-0.149506042846,1.53868982902
3.12421279871,4.934845667,-1.52562654504,0.125068954863
1.07175442913,-2.08666338583,-2.70174704724,-0.918551919291
3.40929605956,0.701827561337,0.432132450558,0.537827206555
3.42683768998,8.21031850851,1.55601194836,4.6142063324
5.0743793204,7.40880945568,0.549891446168,4.78058545825
6.65192095083,2.09730040285,-2.34622905603,1.6569645841
4.56946258125,-5.19420864998,-2.61234955823,-2.55665629006
3.40700421168,-5.19571770281,-3.94847006043,-2.66027716421
4.80454584211,-0.387226755636,-5.19459056262,-0.393898038363
6.30208747253,1.51126419153,-6.12071106482,0.202481087485
-3.18037089705,-1.5602448613,-7.12683156702,-4.28113978667
2.35717073338,-1.46175391413,-5.57295206921,-1.99476066082
1.94471236381,-0.593262966955,-4.76907257141,-1.64838153497
1.74225399423,6.06522798022,-3.99519307361,-1.49200240913
1.99979562465,4.03371892739,-4.82131357581,-2.41562328328
5.61733725508,-1.59779012544,-4.81743407801,-4.37924415744
-0.555121114499,-5.28929917827,-4.6735545802,-4.70286503159
-1.89757948407,-1.51080823111,-5.5196750824,-1.02648590574
1.79996214635,4.40768271607,-1.5157955846,0.519893220106
3.35750377678,4.32617366323,-1.42191608679,0.196272345953
5.0550454072,1.66466461041,-2.48803658899,0.2726514718
2.90258703763,-0.686844442418,-1.72415709119,1.23903059765
5.36012866806,0.851646504751,-1.40027759338,1.76540972349
5.37767029848,2.82013745192,-1.46639809558,5.28178884934
10.5952119289,8.38862839909,-1.19251859778,10.2281679752
9.38275355932,4.45711934626,-0.888639099976,7.71454710103
8.49029518975,1.61561029343,0.315240397824,4.55092622688
4.00783682017,0.00410124059999,0.299119895626,2.65730535273
7.3353784506,7.53259218777,-1.38700060657,8.72368447857
8.87292008103,3.74108313494,-3.26312110876,4.96006360442
7.44046171145,0.519574082115,-1.21924161096,3.39644273027
2.91800334187,1.25806502929,2.91463788684,4.41282185611
2.71554497229,7.08655597646,6.49851738464,9.35920098196
1.14308660272,14.5950469236,9.70239688244,12.8355801078
4.80062823315,13.2535378708,8.47627638025,11.3919592337
-2.76183013643,-0.357971182035,4.39015587805,2.9783383595
-1.494288506,-5.62948023486,2.92403537585,-1.50528251465
-4.93674687557,-2.70098928769,3.95791487366,-1.2089033888
-2.97920524515,-0.132498340521,2.60179437146,0.767475737044
-0.321663614726,-0.114007393349,3.38567386926,2.67385486289
-3.8641219843,-2.54551644618,4.64955336706,4.05023398874
-5.91658035388,-4.08702549901,5.19343286486,4.79661311458
-6.21903872346,-2.29853455184,6.91731236267,5.54299224043
-7.92149709303,2.69995639534,8.15119186047,5.76937136628
7.22789607559,-0.548397529055,-6.48602834303,3.65967659884
2.3490352614,-7.92952881796,-9.75136032778,-4.08562465665
-2.06982555278,-12.2906601069,-11.1566923125,-7.14092591215
1.70131363304,-9.54179139579,-9.54202429729,-5.09622716764
1.13245281886,-4.6729226847,-6.11735628205,-2.99152842313
-0.706407995327,-0.454053973619,-5.29268826681,-0.566829678628
-2.73526880951,-4.34518526253,-6.53802025156,-0.202130934122
-0.54412962369,-9.71631655144,-5.53335223631,-1.13743218961
-3.72299043787,-9.73744784036,-3.76868422107,-4.97273344511
-2.60185125205,-2.34857912927,-4.88401620583,-5.3480347006
-3.83071206624,-1.15971041818,-4.49934819058,-3.7233359561
-5.65957288042,-6.91084170709,-3.53468017534,-5.95863721159
-7.5584336946,-8.591972996,-1.74001216009,-4.16393846708
-7.53729450878,-2.47310428492,2.35465585515,-3.76923972257
-7.51615532297,-0.234235573829,1.76932387039,-3.49454097807
-2.90501613715,2.10463313726,-0.776008114361,-1.58984223356
-8.00387695133,-3.41649815165,-2.90134009911,-4.39514348906
-9.43273776551,-8.97762944057,-3.60667208387,-5.51044474455
-10.4115985797,-6.36876072948,-0.362004068626,-4.38574600004
-8.00045939388,-1.89989201839,-0.627336053378,-2.18104725554
-4.70932020807,-0.0510233073073,-1.30266803813,-2.46634851103
-4.86818102225,0.527845403783,-0.0280000228886,-1.58164976652
-3.72704183643,-5.66328588513,0.446667992357,-4.21695102202
-2.40590265061,-4.44441717405,1.1013360076,-2.95225227751
-0.194763464795,0.244451537052,0.386004022843,0.652446466995
-2.38362427898,1.38332024813,-1.08932796191,-0.912854788499
-1.88248509316,1.22218895922,0.0953400533326,-2.35815604399
-6.07134590734,-2.10894232969,1.33000806858,-3.57345729948
-3.99020672152,-2.4500736186,0.594676083823,-3.36875855498
-6.57906753571,1.97879509248,0.349344099068,-2.26405981047
-1.36792834989,3.47766380357,0.774012114311,-0.649361065965
-1.63678916407,0.0465325146579,0.848680129555,-4.19466232146
-5.83564997825,-2.56459877425,0.203348144798,-4.04996357695
-4.74451079244,3.77426993683,4.65801616004,1.96473516755
-3.64337160662,5.36313864792,3.33268417529,1.65943391206
2.0777675792,10.852007359,2.77735219053,4.17413265657
-1.01109323498,9.5108760701,2.25202020578,5.45883140107
-4.75995404916,6.28974478118,4.75668822102,7.56353014558
1.37118513665,5.52861349227,4.89135623627,6.92822889009
-2.74767567753,11.2674822034,3.50602425151,6.39292763459
0.903463508286,13.0963509144,5.09069226676,7.2576263791
0.184602694106,11.9752196255,4.625360282,7.41232512361
-9.09425812007,0.244088336622,2.80002829724,0.827023868111
-2.02311893426,2.87295704771,5.03469631249,1.82172261262
-3.14197974844,9.2018257588,5.86936432773,3.79642135712
-4.28084056263,13.7306944699,5.97403234298,6.44112010163
1.87029862319,6.68956318097,4.43870035822,5.59581884614
5.02143780901,1.05843189206,2.89336837347,3.44051759064
3.50257699483,-2.37269939685,0.798036388715,-0.394783664849
5.91371618064,4.42616931423,0.82270440396,5.72991507966
4.64485536646,3.83503802533,0.307372419204,2.07461382416
-0.00400544771401,0.193906736407,3.46204043445,0.0293125686712
-0.472866261902,-2.26722455251,5.58670844969,1.42401131318
-0.311727076085,-0.888355841416,5.30137646494,4.15871005768
-0.650587890268,5.59051286967,4.63604448018,3.94340880219
3.60055129555,5.56938158076,2.42071249543,2.91810754669
1.03169048137,0.198250291847,1.21538051067,0.692806291201
-2.36717033281,-3.65288099707,-0.0299514740836,-0.622494964291
0.243968852999,-2.93401228598,2.79471654116,-1.59779621978
5.47510803882,5.24485642511,4.7393845564,3.64690252472
8.67624722463,7.6537251362,5.45405257165,4.07160126923
3.69738641046,7.54259384728,6.25872058689,3.76630001373
6.10852559628,3.87146255837,5.70338860213,3.84099875824
13.6696647821,7.80033126946,4.13805661738,8.56569750275
16.4608039679,7.50919998054,2.31272463263,6.07039624725
16.6619431537,9.91806869163,1.72739264787,4.64509499176
14.4730823395,6.51693740272,3.21206066311,5.30979373627
20.1942215254,-3.52419388619,2.33672867836,-0.165507519227
12.3053607112,-2.85532517511,-0.00860330639262,0.489191225281
18.636499897,1.23354353598,-1.85393529115,4.79388996979
17.0476390828,3.78241224707,-0.449267275908,2.69858871429
15.1687782686,3.48128095816,-0.0445992606619,3.3532874588
13.4099174544,-1.51985033075,-0.219931245418,1.25798620331
15.1510566403,3.11901838033,2.17473676983,2.58268494781
11.7321958261,4.50788709142,2.19940478507,3.30738369232
13.1633350119,3.63675580251,2.40407280032,3.05208243683
3.77447419772,-1.0143754864,1.21874081556,-0.813218818668
8.55561338353,-7.46550677532,-1.25659116919,-2.76852007416
12.8767525694,-7.64663806422,-0.291923153949,-3.45382132965
5.29789175517,1.47223064686,-1.04725513871,0.440877414851
4.42903094098,0.891099357941,-2.25258712346,2.25557615936
2.73017012681,-2.40003193096,-0.867919108216,0.950274903864
-1.82869068738,-6.53116321988,1.09674890703,-1.70502635163
-2.51755150156,-9.93229450879,0.481416922274,-3.93032760712
-2.87641231575,-2.6134257977,-1.82391506248,-0.525628862615
0.164726870069,-2.58455708661,-1.19924704724,-1.23093011811
-4.0841339441,-5.69568837553,-0.184579031993,-1.4262313736
-3.27299475829,-3.19681966444,1.34008898325,-1.6415326291
-2.44185557248,-6.34795095336,-0.225243001503,-1.78683388459
-2.18071638666,1.02091775773,1.49942501374,1.87786485991
0.400422799168,7.51978646882,2.28409302899,7.07256360442
-4.24843801502,2.64865517991,2.10876104423,3.30726234893
-3.24729882921,-4.192476109,1.52342905947,-0.348038906564
-0.316159643386,1.45639260209,3.58809707472,1.82665983794
11.1249795424,8.31526131317,3.20276508997,6.21135858245
1.51611872825,8.08413002426,2.98743310521,5.61605732696
-3.55274208593,2.20299873535,0.752101120455,1.64075607146
-4.04160290011,-2.41813255357,2.9967691357,0.645454815967
-0.890463714299,-0.969263842475,1.61143715094,0.0501535604744
-1.26932452848,1.32960486861,-0.783894833814,-0.475147695019
-1.82818534266,4.24847357969,-2.00922681857,0.129551049487
-3.38704615684,1.43734229079,-3.48455880332,-0.0157502060065
-2.92590697103,-6.19378899813,-4.56989078808,-3.2310514615
-1.17476778521,-1.97492028704,-2.64522277283,0.963647283006
2.0163714006,6.68394842405,-2.74055475759,3.80834602751
4.99751058643,6.78281713514,-3.15588674234,2.49304477202
2.64864977224,-2.39831415378,-2.1712187271,-1.67225648347
3.49978895806,-7.74944544269,-1.81655071185,-3.70755773897
-1.85907185612,-0.670576731609,1.40811730339,0.417141005539
0.552067329692,4.15829197948,0.20278531863,1.16183975005
1.60320651552,2.99716069057,2.01745333388,-1.53346150545
-0.315654298669,-0.743970598342,1.81212134912,-3.26876276094
-2.86451511285,-4.89510188726,-0.733210635633,-0.694064016436
-4.54337592704,-4.05623317617,0.101457379613,-0.509365271928
-9.52223674122,1.46263553492,-0.183874605144,-1.03466652742
-1.6710975554,-1.338495754,-4.2992065899,-4.08996778291
-2.49995836958,-9.15962704291,-5.83453857465,-9.64526903841
-6.85881918377,-11.8907583318,-4.22987055941,-10.1505702939
-5.02767999795,-7.85188962072,-4.17520254417,-8.4458715494
-5.11654081214,-1.14302090964,-2.90053452892,-3.74117280489
-5.76540162631,-0.614152198556,-5.11586651368,0.443525939616
-6.0542624405,-2.89528348747,-6.21119849843,-1.36177531588
-6.45312325468,-6.96641477638,-2.71653048319,-2.17707657137
-10.9019840689,-4.21754606529,1.41813753206,-2.93237782686
-8.35084488305,3.0013226458,-1.4871944527,-1.40767908236
-9.28970569722,3.06019135688,-3.96252643745,-0.752980337851
-14.9385665114,-0.430939932034,-3.44785842221,-3.19828159334
-14.7374273256,-9.73207122094,-6.84319040697,-9.02358284884
-8.17804142442,-11.8894694767,-4.18547238373,-13.5219803779
-10.6365306835,-3.18895371726,-0.972795161149,-9.09597109046
-9.30501994255,0.301562042223,-1.37011793857,-6.68996180301
-7.59350920162,-3.5479221983,-1.53744071599,-3.81395251556
-7.70199846067,-7.43740643882,-1.21476349342,-4.46794322812
-6.66048771974,-1.01689067936,0.767913729163,-3.35193394067
-10.1889769788,-0.566374919872,1.83059095174,-5.65592465322
-6.88746623787,1.96414083961,-0.286731825676,-1.70991536577
-9.98595549693,-1.61534340092,-0.904054603099,0.996093921674
-10.674444756,-9.78482764144,0.82862261948,-3.96789679088
-3.77293401507,-6.94431188197,1.40129984206,-2.95188750343
-2.23142327413,1.90620387751,1.96397706464,2.30412178402
-0.249912533196,6.64671963698,2.89665428721,6.86013107146
4.34159820774,8.25723539646,3.30933150979,4.81614035891
2.20310894868,-1.33224884406,1.93200873237,0.652149646359
6.48461968962,-2.06173308459,1.40468595495,-1.18184106619
10.1361304305,3.29878267489,0.117363177524,5.36416822125
2.72764117149,3.65929843437,-0.519959599897,4.1901775087
4.82915191243,-1.72018580616,-0.417282377319,0.386186796148
4.93066265336,-3.19967004669,-0.43460515474,1.5721960836
9.50217339429,0.490845712789,1.90807206784,4.42820537104
4.83368413523,6.44136147227,3.57074929041,4.89421465849
3.95519487617,7.45187723175,2.323426513,2.29022394594
5.7067056171,1.44239299122,0.196103735576,-1.39376676662
6.31821635803,-2.19709124931,3.28878095816,1.88224252083
7.06972709897,2.67342451018,5.58145818073,6.09825180828
6.89123783991,5.04394026964,3.19413540331,5.27426109573
-2.79725141916,2.23445602912,-3.23318737411,-4.76972961683
-1.44574067822,0.984971788603,-4.45051015154,-2.38372032938
-3.62422993728,-5.25451245192,-2.15783292896,-3.54771104193
-1.65271919635,-0.223996692454,-0.49515570638,-1.83170175449
6.24879154458,6.88651906703,0.857521516198,0.734307532965
0.09030228552,9.86703482651,-0.919801261221,2.90031682041
2.96181302646,2.73755058598,0.342875961356,1.72632610786
5.85332376739,-1.98193365455,1.77555318394,0.272335395306
6.66483450832,1.24858210493,0.968230406514,3.08834468275
5.62634524926,6.31909786441,-1.81909237091,2.0243539702
7.6478559902,6.98961362388,-0.316415148329,3.75036325765
6.39936673113,4.31012938336,0.836262074248,5.3763725451
2.83087747207,-0.799354857161,-0.851060703171,3.11238183254
1.30238821301,4.59116090232,-0.818383480593,3.95839111999
6.02389895394,2.19167666179,-0.295706258017,1.15440040744
7.73540969488,4.12219242127,-0.733029035437,1.98040969488
-1.02307956419,-2.48729181926,-3.18035181286,-4.48358101767
-10.4815688233,-6.46677605979,-2.04767459028,-5.35757173022
-3.97005808231,-1.36626030031,0.155002632295,0.848437557224
2.52145265862,7.79425545917,0.917679854876,9.09444684467
5.25296339955,8.13477121865,1.69035707745,8.17045613212
4.43447414049,0.495286978119,2.48303430003,3.82646541957
7.73598488143,-7.55419726241,0.775711522609,-0.197525292986
6.62749562236,-4.80368150293,-0.891611254814,-1.72151600554
4.1490063633,-1.24316574344,-3.78893403224,-2.15550671809
5.53051710423,1.75735001603,-2.39625680965,0.320502569357
2.91202784517,-0.952134224499,0.416420412923,-0.263488143195
6.1435385861,-2.22161846502,1.8490976355,1.45252114425
3.11504932704,1.50889729445,3.76177485808,4.5585304317
2.74656006797,6.60941305393,3.59445208066,6.45453971915
0.118070808909,8.26992881341,2.41712930324,6.0405490066
-1.48041845015,1.43044457288,-1.68019347419,0.31655829404
-4.44890770921,-5.93903966764,-3.50751625161,-2.32743241851
-2.31739696828,-6.40852390816,-2.06483902903,-3.24142313106
-2.84588622735,3.31199185131,-0.512161806451,1.15458615638
-0.684375486409,6.15250761079,-0.569484583873,3.32059544383
-0.362864745475,-0.706976629735,-1.22680736129,-1.62339526872
-4.42135400454,-5.28646087026,-2.94413013872,-1.42738598128
-8.4798432636,-3.84594511078,0.158547083862,-1.66137669383
-1.51833252267,0.0845706486871,-0.638775693558,-2.53536740638
-2.78682178173,-0.654913591832,-3.26609847098,-1.90935811893
-4.27531104079,-5.85439783235,-4.0834212484,-5.11334883149
-2.14380029986,-6.30388207288,-2.98074402582,-3.57733954404
1.93771044107,-3.6833663134,-2.85806680324,-1.05133025659
5.35922118201,-0.212850553929,-2.46538958067,0.554679030856
3.14073192294,-1.26233479445,-1.47271235809,0.230688318303
5.47224266388,-4.21181903498,-1.08003513551,0.806697605749
1.92375340482,-5.3313032755,-2.22735791293,1.0927068932
-0.304735854246,-3.27078751602,-1.48468069036,-0.271283819355
4.87677488668,3.47972824346,-0.222003467778,2.18472546809
6.80828562762,4.13024400292,-0.699326245198,2.98073475554
-0.630203631445,-3.83924023759,-2.41664902262,-1.58325595701
-0.488692890511,-7.90872447812,0.0560281999569,-2.90724666957
-4.69718214957,-8.50820871865,0.538705422536,-4.27123738212
-4.46567140864,-0.947692959169,0.051382645117,-1.86522809467
-6.2741606677,2.91282280031,0.864059867694,-0.329218807223
-5.01264992676,-4.92666144021,-0.193262909728,-6.48320951978
-6.25113918583,-7.62614568074,-0.920585687149,-4.53720023233
-3.5196284449,-2.06562992126,-0.467908464569,-0.271190944881
-3.16811770396,2.14488583821,0.614768758009,1.35481834256
0.863393036976,8.73540159769,3.73744598059,7.09082763001
-3.95509622209,1.96591735716,2.96012320316,2.75683691746
-8.48358548115,-9.18356688336,-2.29719957426,-5.38715379509
-6.04207474022,-8.86305112388,-1.66452235168,-7.38114450765
-6.30056399928,-0.992535364407,-3.1118451291,-3.5851352202
-6.13905325835,-0.0820196049317,-3.60916790652,-4.48912593275
-5.78754251741,-1.77150384545,-2.23649068395,-5.9431166453
-5.06603177647,-5.95098808597,-1.62381346137,-5.14710735786
-3.58452103554,-1.6104723265,0.108863761212,-2.55109807041
-8.1730102946,6.30004343297,1.64154098379,0.394911217038
-4.21149955367,8.74055919245,2.29421820637,1.70092050449
-0.649988812729,0.201074951925,-1.02310457105,1.58692979193
-3.71847807179,-6.7284092886,1.06957265153,-1.43706092062
-1.63696733086,-2.38789352912,1.6122498741,-0.971051633172
-2.27545658992,-1.84737776964,0.774927096681,-0.0750423457248
1.26605415101,0.503137989828,-0.312395680739,0.760966941722
-1.85243510805,1.42365374931,2.76028154184,1.36697622917
-1.19092436712,-0.00583049121633,5.25295876442,2.70298551662
-0.739413626179,4.57468526826,3.83563598699,3.92899480406
6.60209711476,9.31520102773,2.63831320957,6.37500409151
2.94360785569,10.2157167872,3.32099043215,5.41101337896
5.41511859663,6.32623254669,2.61366765473,5.89702266641
1.84662933756,4.13674830616,3.44634487731,6.32303195385
-2.8618599215,-0.172735934357,0.129022099885,0.659041241301
-0.950349180566,2.39777982512,0.381699322468,1.08505052875
0.981161560368,4.3282955846,2.69437654505,1.46105981619
-0.827327698695,0.728811344066,0.227053767623,-1.05293089636
-0.655816957762,-3.56067289646,0.0597309902005,-1.38692160891
-1.36430621682,-4.39015713697,-0.557591787223,-2.96091232146
2.01720452411,2.43035862249,-0.234914564644,-0.554903034015
4.12871526505,5.72087438197,0.917762657933,1.50110625343
1.73022600599,0.671390141455,-1.39956011949,-0.242884459121
-0.518263253085,-4.75809409907,-1.51688289691,-0.746875171673
4.60324748785,-1.1775783396,0.0557943256681,-0.840865884227
0.00475822879525,0.772937419883,0.468471548247,-0.664856596779
-1.74373103028,3.02345317935,-0.198851229175,-2.69884730933
-1.00222028935,-2.46603106117,-2.8861740066,-3.53283802188
0.0992904516024,-8.03551530169,-1.96349678402,-3.37682873444
5.03080119253,-6.41499954221,-0.45081956144,-4.75081944699
4.90231193347,2.29551621727,0.43185766114,0.765189840458
6.8138226744,5.96603197674,0.234534883719,2.6611991279
1.25431686047,0.496478924433,2.99613372093,-0.849716569763
0.574994449285,-0.0549776826374,4.34408953831,1.4891138585
2.8256720381,1.10356571028,3.5520453557,0.897944286764
4.76634962691,4.95210910321,4.14000117309,0.976774715029
0.907027215719,4.87065249613,3.00795699047,0.295605143294
-0.162295195463,4.18919588905,3.14591280786,-0.265564428442
6.81838239334,0.397739281972,3.04386862525,0.843265999822
-0.160940017842,2.0662826749,3.70182444263,-1.40790357191
-0.0302624290343,3.88482606782,4.78978026002,-0.0690731436516
4.28041515977,6.08336946074,3.65773607741,1.23975728461
3.33109274859,-1.16808714635,2.3456918948,-2.57141228712
1.9417703374,-0.799543753419,4.12364771219,-1.55258185886
2.20244792621,-0.791000360499,3.86160352957,1.60624856941
4.23312551502,2.70754303243,1.27955934696,2.56507899767
6.01380310384,6.69608642535,2.71751516434,2.15390942593
6.42448069264,2.05462981827,3.21547098173,1.5127398542
3.29515828145,-2.44682678881,1.48342679912,0.811570282462
0.675835870265,-0.158283395882,1.7813826165,1.72040071073
2.29651345908,2.80025999704,1.87933843389,2.17923113899
7.72719104789,-0.481196610039,-3.25270574872,0.428061567252
-2.7721313633,-4.53265321712,-2.21474993133,-2.49310800448
-6.84145377448,-4.39410982419,3.05320588605,-2.32427757622
0.529223814323,-0.645566431274,3.19116170344,3.81455285205
5.34990140314,5.84297696165,5.02911752083,4.45338328031
-0.93942100805,7.33152035457,2.65707333821,2.84221370857
-6.50874341925,1.82006374749,1.9250291556,-0.458955863163
-3.22806583043,-3.87139285958,3.96298497299,-3.5301254349
-3.03738824162,2.36715053334,4.47094079038,2.31870499337
1.36328934719,7.11569392627,3.33889660776,6.66753542163
-4.146033064,9.25423731919,3.76685242515,5.62636584989
-7.70535547518,4.92278071211,3.48480824253,2.95519627816
-5.94467788637,-5.05867589497,-0.907235940078,0.224026706421
-9.75400029757,-5.13013250205,0.420719877307,-3.85714286531
-7.96332270875,3.78841089087,2.82867569469,-2.60831243705
-3.93264511994,-1.76304571621,0.106631512084,-3.15948200878
-1.48196753113,-1.86450232328,-1.78541267053,-1.40065158052
0.328710057678,-3.66595893036,-3.69745685314,0.668178847742
-6.3806123535,2.46258446256,-0.559501035757,1.03700927601
-3.05993476469,5.05112785548,1.27845478163,4.60583970427
-0.609257175878,5.85967124841,-1.59358940098,7.16467013253
-7.02857958707,1.24821464133,-4.1556335836,2.3535005608
-7.59790199826,-5.85324196575,-3.33767776621,-1.94766901094
-3.23722440944,-5.50469857283,-2.94972194882,-0.728838582674
4.26345317936,2.2138448201,-3.88176613143,-0.580008154409
2.58413076818,3.96238821303,-6.46381031405,0.0988222738542
2.61480835699,-2.43906839406,-6.29585449666,1.02765270212
-0.114514054199,-4.78052500113,-5.19789867927,-1.17351686962
-5.5738364654,-4.72198160821,-3.86994286189,-5.17468644135
-0.0631588765827,1.92656178471,-0.211987044502,0.984143986911
3.57751871223,9.40510517763,0.0159687728883,3.40297441517
-0.571803698964,2.75364857056,-0.196075409727,2.37180484344
-0.171126110145,-1.57780803652,2.14188040766,2.4906352717
4.89955147867,-2.45926464361,-1.25016377495,-0.960534300035
0.650229067476,-0.550721250678,-5.46220795756,-3.60170387177
-0.43909334371,0.247822142243,-4.69425214018,-1.17287344351
-1.19841575489,-5.07363446483,-4.17629632279,-3.53404301524
-7.55773816609,-14.1350910719,-7.7183405054,-8.68521258698
-3.58706057728,-17.856547679,-8.31038468802,-12.2963821587
1.84361701153,-8.61800428607,-7.52242887063,-4.74755173045
3.93429460035,-2.67946089315,-5.36447305324,-2.74872130219
2.96497218915,-6.27091750022,-6.36651723586,-4.98989087392
6.20564977796,-8.4523741073,-5.00856141847,-0.771060445657
8.16632736678,-4.98383071437,-4.96060560108,2.87776998261
12.1170049556,1.73471267855,-4.6626497837,5.39660041087
9.9176825444,5.92325607147,-3.59469396631,8.29543083913
0.258360133215,-2.95820053561,-7.65673814892,-0.515738732602
1.78903772202,-7.59965714269,-7.22878233153,-4.97690830434
3.63971531083,-6.02111374976,-5.25082651415,-2.16807787607
-1.79960710036,0.157429643157,-2.15287069676,-0.67924744781
-6.29892951154,2.97597303608,-2.41491487937,0.0195829804543
-4.46825192273,-2.505483571,-1.79695906198,-2.51158659128
-1.09757433391,-10.0069401781,-3.7590032446,-4.35275616302
2.78310325489,-8.81839678516,-4.35104742721,-1.68392573475
1.0537808437,-2.47985339224,-4.01309160983,-1.40509530649
-0.855541567485,-2.96130999931,-5.69513579244,-0.916264878224
-3.14486397868,-5.47276660638,-5.06717997505,-3.98743444996
-7.08418638986,-11.2142232135,-2.61922415766,-4.9186040217
-9.27350880105,-7.37567982054,-1.29126834028,-7.02977359343
-4.34283121223,2.35286357238,-3.04331252289,-0.910943165169
-0.842153623431,4.15140696531,-1.2953567055,2.6078872631
1.18852396538,2.25995035822,0.882599111883,2.71671769136
-0.540798445807,-2.11150624885,-0.559445070729,-0.784451880378
-0.790120856997,-0.452962855932,-0.931489253344,-1.70562145211
1.70055673182,4.25558053699,-0.833533435954,0.67320897615
1.32123432063,1.02412392991,-1.40557761857,-1.65796059558
-2.39808809056,-2.18733267716,-2.51762180118,-3.81913016732
0.612589498247,-1.23878928424,-1.1596659838,-0.360299739059
-1.09673291293,-0.510245891317,2.01828983359,0.928530689205
1.07394467587,2.69829750161,0.14624565098,1.47736111747
1.41462226468,9.40684089453,-1.02579853163,5.75619154574
0.855299853494,2.60538428745,-1.77784271425,0.315021973998
-0.694022557691,-1.60607231963,-2.81988689686,-1.76614759774
3.14665503112,-1.1375289267,-0.681931079471,-2.76731716947
2.08733261993,4.26101446621,1.53602473791,0.271513258791
4.51801020875,4.35955785913,-0.7060194447,0.210343687055
2.89868779755,3.74810125206,0.68193637269,2.38917411532
-1.08063461364,-3.64335535502,2.54989219008,-1.19199545642
-1.33995702482,-0.664811962095,2.66784800746,-1.47316502815
-0.669279436013,5.58373143083,2.76580382485,2.72566540011
0.731398152799,6.80227482375,3.35375964224,-0.285504171625
3.02207574161,4.80081821667,4.01171545962,3.91332625664
-2.43724666958,4.0693616096,6.16967127701,6.3121566849
-1.72656908077,2.60790500252,7.34762709439,5.21098711317
-4.52589149195,1.31644839544,6.79558291178,-0.0501824585699
-4.37521390314,-0.565008211634,3.94353872917,-0.801352030305
-4.11453631434,-4.53646481872,2.38149454656,-3.55252160204
-9.12385872552,-10.5679214258,3.21945036394,-9.15369117378
-3.88318113671,-8.60937803287,3.16740618133,-9.09486074551
0.717496452104,0.719165360053,2.85536199872,-1.70603031725
0.688174040908,5.84770875298,3.0233178161,2.59280011102
-1.82114837028,0.226252145898,4.08127363349,0.951630539279
-4.62047078147,-3.09520446118,2.99922945088,0.0504609675427
-4.03979319266,0.583338931749,2.02718526827,2.56929139581
-8.36911560384,4.14188232467,0.445141085656,0.948121824071
-6.75843801504,3.69042571758,1.41309690304,-0.0630477476661
-5.11776042622,-2.99103088949,1.22105272043,-1.7042173194
-2.01708283741,-3.49248749657,-0.620991462187,-3.39538689114
0.213594751403,0.456055896349,1.4469643552,-2.88655646287
1.50427234021,4.43459928928,2.90492017259,4.37227396539
5.00494992903,3.6631426822,3.11287598998,1.32110439365
4.28562751783,3.21168607512,2.39083180736,1.39993482192
9.01630510665,4.40022946804,0.768787624747,4.26876525018
-1.22301730454,1.36877286097,0.776743442137,1.13759567845
6.54766028427,7.90731625389,2.16469925952,2.82642610671
13.9383378731,9.36585964681,1.28265507691,8.46525653498
6.46901546189,0.244403039731,0.800610894297,2.02408696324
3.43969305071,-2.74705356734,2.19856671169,0.582917391503
6.97037063952,3.12148982558,2.04652252907,4.50174781977
-6.80842659884,8.97188590118,3.98437499999,-3.61337936046
-7.08845014649,7.04534414486,4.95876845472,-4.21913815006
-0.528473694147,7.30880238855,3.41316190944,-4.16489693966
-1.0684972418,2.09226063223,7.67755536417,-3.25065572926
-2.30852078945,2.64571887592,9.78194881889,-4.70641451886
-4.76854433712,8.17917711959,8.16634227362,-1.11217330846
-7.66856788477,7.51263536327,7.60073572834,-1.37793209806
-11.6985914324,-1.12390639304,5.17512918307,-5.52369088766
-14.4286149801,-3.97044814936,4.47952263779,-10.1994496773
-13.4386385277,6.84301009432,5.92391609252,-2.35520846685
-4.6386620754,12.726468338,7.34830954724,5.14903274355
1.01131437695,9.35992658169,7.71270300197,6.30327395395
-5.29870917071,1.89338482537,1.02709645669,-1.38248483565
-4.67873271836,1.55684306905,-0.678510088586,0.731756374751
-4.06875626602,2.08030131274,6.70588336614,4.30599758515
3.55122018632,5.45375955641,3.99027682086,3.77023879555
-0.348803361339,3.6672178001,1.92467027559,4.05448000595
3.37117309101,-0.0293239562234,-0.89093626969,4.85872121635
3.34114954335,-9.66586571254,0.883457185038,-0.757037573245
3.6111259957,-5.72240746886,-0.982149360239,-0.562796362843
5.11110244804,-2.07894922517,-2.57775590552,1.76144484756
4.01107890039,0.244509018514,-2.07336245079,3.16568605796
0.92105535273,-1.8020327378,-4.15896899607,3.10992726836
0.0610318050676,-9.51857449413,-3.51457554134,1.81416847876
2.56100825741,-5.20511625044,-2.74018208662,1.80840968916
5.54098470975,0.248341993232,-1.14578863189,6.00265089956
0.020961162103,4.80180023692,0.0986048228333,8.90689210996
0.590937614448,-0.0747415193982,-0.127001722445,6.47113332036
4.7409140668,-4.33128327571,-2.44260826772,4.92537453077
0.190890519138,-0.93782503203,-0.0182148129934,7.03961574117
2.93086697148,3.19563321165,0.316178641729,7.26385695157
4.26084342382,4.66909145533,-0.319427903545,8.03809816197
5.69081987617,1.89254969901,-1.22503444882,7.70233937237
2.17079632852,-9.0739920573,-4.1606409941,-1.13341941723
-0.11922721914,-5.61053381362,-3.67624753937,1.23082179317
5.1007492332,0.312924430058,-0.89185408465,4.26506300357
8.81072568554,4.52638267374,-0.257460629924,6.47930421397
13.2707021379,3.84984091742,-0.083067175201,5.22354542437
4.45067859023,0.00329916110786,-0.668673720476,3.78778663478
6.70065504257,-0.0432425952094,-2.53428026575,4.23202784518
10.0006314949,5.07021564847,-3.72988681103,9.40626905558
8.41060794726,8.05367389216,-2.2654933563,13.590510266
1.1805843996,7.38713213584,-1.78109990158,11.5747514764
3.36056085195,-2.76940962048,-1.60670644686,5.28899268678
9.95053730429,2.5440486232,1.64768700787,7.58323389718
9.04051375663,8.48750686688,2.0420804626,7.82747510758
13.870490209,10.6509651106,3.18647391732,9.16171631798
12.8904666613,2.24442335425,0.790867372045,6.02595752838
5.40044311367,-0.922118402072,-0.494739173231,4.55019873879
2.04041956602,-4.02866015839,-1.2803457185,1.10443994919
1.20039601836,-7.4352019147,-3.05595226378,-4.40131884041
-4.1896275293,-6.18174367102,-4.27155880905,-7.37707763001
-4.91965107696,-9.15828542734,-3.56716535433,-12.2528364196
-6.39967462461,-12.0948271837,-3.95277189961,-12.2985952092
-7.09969817227,-6.91136893997,-3.95837844488,-4.41435399881
1.59027828007,-3.5179106963,-6.02398499016,-5.11011278841
2.03025473242,-2.51445245261,-5.00959153543,-6.29587157801
-3.32976881524,-11.2409942089,-3.85519808071,-13.8116303676
-3.9597923629,-15.6775359652,-4.73080462599,-15.3773891572
-9.10981591055,-13.9540777216,-4.04641117126,-12.2831479468
-10.3498394582,-7.79061947788,-4.48201771654,-10.4689067364
-4.31986300587,-1.5371612342,-5.56762426181,-7.454665526
-1.37988655352,-5.87370299052,-6.02323080709,-7.4204243156
-2.54991010117,-5.75024474684,-3.38883735236,-5.5661831052
1.35006635117,-2.82678650315,-4.67444389764,-3.3819418948
1.57004280351,-1.71332825947,-5.08005044291,-5.1077006844
-1.45998074414,-0.289870015789,-2.45565698819,-5.913459474
2.6899957082,-4.73641177211,-1.66126353346,-6.0792182636
1.81997216054,-8.48295352842,-3.49687007874,-7.7949770532
2.15994861288,-6.86949528474,-6.12247662402,-8.3207358428
1.88992506522,-1.75603704106,-7.40808316929,-8.2764946324
-0.130098482427,0.577421202623,-3.12368971456,-8.75225342199
-0.120122030079,-1.1191205537,-3.08929625984,-7.54801221159
-1.74014557774,-4.27566231001,-4.19490280512,-8.15377100119
0.289830874608,-4.19220406633,-4.87050935039,-7.75952979079
2.67980732695,0.501254177347,-5.05611589567,-4.25528858039
3.88978377929,2.90471242103,-0.151722440944,0.478952630012
1.73976023163,0.738170664714,2.08267101378,-1.86680615959
1.18973668398,-7.49837109161,-1.5729355315,-5.71256494918
2.41971313633,-6.24491284792,-2.78854207677,-0.158323738784
0.929689588673,0.69854539576,-2.28414862205,-0.204082528384
-2.29033395899,1.07200363945,-2.71975516732,-1.65984131798
-2.28035750664,-3.04453811687,-2.8353617126,-3.69560010758
-2.82038105431,-3.23107987319,-2.33096825787,-1.62135889718
-3.10040460196,1.95237837049,4.12342519685,3.40288231322
0.039571850386,3.42583661417,3.92781865158,4.24712352362
3.00954830273,9.04929485785,3.5622121063,6.99136473402
0.939524755078,2.47275310154,1.36660556103,3.29560594442
0.439501207416,-2.00378865478,-0.269000984252,-0.0301528451764
-1.35052234024,-3.68033041109,-1.46460752952,-1.69591163478
-1.74054588789,1.83312783259,-0.310214074801,-0.291670424374
0.909430564447,3.46658607627,-0.85582062008,-0.117429213975
-5.27059298321,-0.809955680052,-3.44142716535,-0.743188003573
-4.81061653086,-2.91649743637,-2.84703371063,0.301053206829
-4.12064007852,1.85696080732,-0.592640255902,3.00529441723
-1.36066362618,2.23041905099,-1.64824680118,-0.0804643723695
1.64931282617,4.64387729468,0.376146653543,1.92377683803
6.79928927851,-1.06266446164,-0.0394598917301,1.11801804843
-3.06073426914,-6.13920621796,-1.14506643701,-3.06774074117
-2.7107578168,-0.155747974277,-1.44067298228,-0.793499530766
-2.16078136446,5.53771026941,0.163720472443,3.74074167964
-2.26080491211,2.92116851309,0.998113927166,1.63498289003
-3.36082845976,-3.00537324323,-0.0374926181066,-3.24077589956
-7.12085200742,-2.97191499954,0.446900836614,-2.41653468916
-4.36087555508,-2.74845675586,-0.00870570865663,-0.542293478762
-3.30089910274,2.92500148781,3.26568774606,1.86194773164
-3.01092265039,4.2884597315,3.89008120079,-0.823811057959
2.27905380195,0.231917975179,-0.075525344484,-0.689569847558
-2.07096974571,-3.66462378114,1.04886811024,-2.14532863716
-6.75099329336,-4.74116553745,2.65326156496,-3.38108742675
-11.021016841,-1.03770729377,1.32765501969,-2.80684621636
-10.0310403887,-1.88424905009,0.11204847441,-2.63260500595
-11.4710639363,-1.8707908064,1.82644192914,-2.40836379555
-10.241087484,-8.04733256272,1.90083538386,-7.13412258515
-6.81111103165,-2.64387431904,3.68522883859,-2.45988137475
-4.4511345793,6.13958392464,3.42962229331,5.40435983565
0.42884187305,6.96304216832,2.88401574803,5.01860104605
7.17881832539,2.19650041201,3.65840920276,3.22284225645
1.51879477773,-1.52004134432,1.48280265748,2.30708346685
2.57877123007,1.85341689937,5.38719611221,1.49132467725
4.46874768242,9.17687514305,5.95158956693,6.40556588766
2.40872413476,10.8903333867,5.43598302166,6.22980709806
5.6187005871,3.71379163042,4.33037647638,4.90404830846
6.83867703945,2.5672498741,4.8847699311,8.09828951886
8.8386534918,5.89070811778,4.97916338583,5.38253072926
7.46862994414,8.75416636146,4.97355684056,8.71677193966
6.11860639649,11.3676246051,3.66795029528,9.04101315006
6.21858284883,5.37108284883,1.69234375,5.91525436046
4.78863755576,-3.53615919222,-2.34398505115,-4.77356674534
3.51707385865,-3.53864252147,-1.81737434059,-6.63897542058
0.755510161551,0.82887414928,-0.830763630041,-6.21438409582
