1.00961482559,6.88079941861,-3.85956395349,8.91654433139
-0.0671273862317,3.90939534312,-4.26855088927,7.13987261948
-0.773869598052,0.0679912676278,-4.77753782504,6.07320090757
-1.09061180987,-0.953412807863,-5.32652476081,4.42652919566
2.97264597831,-0.324816883352,-4.32551169658,3.65985748375
5.13590376648,2.60377904116,-3.69449863235,7.39318577183
2.75916155467,6.18237496567,-2.78348556812,9.95651405992
3.15241934285,3.66097089018,-2.1024725039,9.60984234801
4.75567713103,2.59956681469,-1.67145943967,6.4631706361
6.01893491921,4.6281627392,0.669553624561,-0.903501075812
5.41219270739,7.87675866371,3.92056668879,7.81982721228
1.20545049557,0.165354588218,-1.31842024698,5.26315550036
-0.121291716256,-4.20604948727,-4.10740718275,-4.74351621155
-2.33803392808,-5.74745356276,-0.296394118526,-5.45018792346
-1.3247761399,-8.66885763825,-1.8253810543,-7.85685963537
-1.37151835172,-4.47026171374,-0.114367990071,-7.35353134728
-2.33826056354,-5.09166578923,0.0766450741576,-10.5602030592
-2.92500277536,-2.36306986472,1.93765813839,-7.66687477111
-2.26174498718,0.795526059788,3.53867120262,-2.00354648302
1.011512801,2.2341219843,2.11968426684,-3.92021819493
-0.135229410822,4.04271790881,2.49069733107,-0.59688990684
-0.521971622642,4.02131383332,3.4617103953,-1.95356161875
-0.838713834459,3.37990975783,3.83272345953,-1.95023333066
-3.81545604628,3.35850568234,4.51373652376,0.0530949574249
-3.4621982581,2.06710160685,5.12474958798,-0.693576754487
-0.94894046992,4.99569753136,5.96576265221,0.609751533601
-2.87568268174,2.45429345587,5.03677571644,-2.91692017831
-4.92242489356,-2.59711061962,4.32778878067,-3.57359189022
-5.09916710538,-5.22851469511,1.1488018449,-8.42026360213
-4.5259093172,-4.0799187706,0.419814909126,-9.99693531405
-3.59265152902,-2.40132284609,1.19082797335,-6.63360702596
-2.39939374084,-0.362726921579,0.731841037581,-5.19027873787
-1.17613595266,1.40586900293,1.45285410181,-2.05695044978
-1.96287816449,2.76446492744,1.62386716604,-0.813622161692
-1.96962037631,3.10306085195,1.85488023027,-0.630293873604
0.0136374118738,2.95165677646,1.75589329449,2.37303441448
0.0268952000515,4.61025270097,1.65690635872,3.86636270257
-0.779847011767,3.87884862548,2.40791942295,2.63969099066
-0.0265892235875,2.89744454999,2.21893248718,2.40301927875
-0.233331435407,2.2960404745,3.25994555141,4.67634756684
2.09992635277,1.85463639901,3.29095861564,4.92967585493
5.49318414095,1.67323232352,1.73197167986,4.98300414301
6.40644192913,2.35182824803,1.52298474409,7.0063324311
10.4696997173,1.53042417254,0.123997808321,4.77966071919
12.0029575055,1.25902009706,-0.284989127451,7.04298900728
10.2062152937,2.46761602156,0.106023936776,9.84631729537
8.89947308185,1.15621194607,-0.512962998995,3.63964558346
5.92273087003,0.624807870583,1.23805006523,3.22297387154
3.99598865821,1.85340379509,1.69906312946,4.03630215963
2.03924644639,2.42199971961,1.71007619369,3.64963044772
-0.307495765435,4.61059564411,1.57108925792,4.68295873581
-1.03423797726,4.25919156862,1.24210232215,3.0662870239
-2.78098018907,-0.432212506868,1.18311538637,-2.63038468801
-3.81772240089,-0.403616582356,1.7141284506,-1.90705639993
-3.68446461271,-1.02502065785,1.16514151483,-1.15372811184
-1.80120682453,-2.81642473333,-0.103845420941,-2.56039982375
-0.777949036354,-2.76782880882,-0.182832356713,-2.63707153566
-3.97469124818,-4.56923288431,0.678180707515,-4.10374324757
-5.01143346,-3.67063695981,0.809193771745,-0.200414959485
-4.39817567182,-3.6020410353,0.550206835973,-1.3170866714
-8.15491788364,-1.79344511079,0.7812199002,-1.59375838331
-5.23166009546,-4.69484918627,-1.14776703557,-0.98043009522
-3.29840230728,-7.77625326176,-2.72675397134,-4.76710180713
-1.5651445191,-6.89765733725,-3.74574090711,-5.92377351904
-0.421886730921,-2.84906141274,-2.88472784289,-2.34044523096
0.151371057258,-2.00046548824,-1.73371477866,-3.13711694287
1.28462884544,-2.15186956372,-0.832701714431,-1.11378865478
3.64788663362,-3.19327363921,0.388311349798,-0.900460366691
1.9811444218,-2.2146777147,0.919324414028,1.5228679214
-0.43559779002,0.473918209809,1.08033747826,2.53619620949
-0.512340001838,-2.35748586569,-0.808649457516,-1.37047550242
0.640917786339,-5.68888994118,-3.07763639329,-4.08714721434
0.88417557452,-7.25029401666,-2.61662332906,-4.63381892625
2.9974333627,-8.85169809215,-4.61561026483,-6.03049063816
1.72069115088,-6.08310216764,-4.1845972006,-4.03716235007
-0.696051060942,-3.59450624313,-2.80358413638,-5.09383406198
1.16720672724,-4.86591031863,-3.53257107215,-5.9405057739
-2.31953548458,-6.44731439411,-4.59155800792,-6.93717748581
-3.31627769641,-4.6187184696,-4.09054494369,-5.33384919772
-2.67301990823,-7.00012254509,-3.98953187946,-5.26052090963
-2.31976212005,-7.47152662058,-4.35851881523,-6.65719262154
-2.21650433187,-6.66293069607,-3.96750575101,-6.16386433345
-2.58324654368,-6.65433477156,-4.02649268678,-4.23053604536
-0.0599887555036,-4.66573884705,-1.80547962255,-3.68720775728
3.30326903267,-3.07714292254,-1.81446655832,-4.34387946919
1.68652682085,-1.47854699803,-3.03345349409,-4.8705511811
2.46978460903,2.05004892648,-1.86244042987,0.412777106988
2.46304239721,0.39864485099,-1.49142736564,0.226105395076
-0.403699814608,0.407240775497,-0.320414301408,-0.690566316835
1.16955797357,2.06583670001,0.650598762821,-0.207238028747
-1.60718423825,2.71443262452,0.151611827048,-2.45390974066
-0.603926450072,3.45302854903,0.812624891276,-1.26058145257
1.68933133811,2.02162447354,0.843637955504,0.472746835518
1.50258912629,1.54022039805,0.674651019732,2.86607512361
-1.61415308553,1.53881632256,-0.314335916039,3.05940341169
-1.24089529735,-0.442587752932,-0.643322851811,-1.84726830022
-2.15763750918,-0.773991828421,-0.812309787583,-3.80394001213
-2.834379721,-2.02539590391,-0.981296723356,-1.38061172404
-1.77112193281,-3.1567999794,-1.93028365913,-1.70728343595
-6.08786414463,-0.51820405489,-0.639270594898,0.976044852136
-7.01460635645,1.20039186962,-0.36825753067,2.79937314022
-2.75134856827,1.20898779413,-1.66724446644,3.39270142831
-6.26809078009,-0.91241628136,-1.54623140221,0.2260297164
-3.88483299192,-3.72382035685,-1.94521833799,-2.40064199551
1.44842479626,-3.36522443234,-1.55420527376,-1.63731370742
-2.86831741556,-0.0566285078276,-0.373192209528,-1.66398541933
-6.65505962738,1.87196741668,0.1478208547,-0.270657131246
-7.1718018392,1.96056334119,0.718833918927,0.672671156843
-6.61854405102,2.7991592657,-0.0101530168449,1.97599944493
-2.69528626284,6.14775519021,0.720860047384,4.75932773302
-1.51202847466,6.98635111472,2.94187311161,3.94265602111
-1.00877068648,5.39494703923,2.46288617584,4.2859843092
-1.6655128983,1.89354296375,2.45389924007,3.77931259728
-0.19225511012,2.56213888825,3.7549123043,3.52264088537
4.83100267806,2.03073481276,1.24592536853,4.09596917346
4.17426046624,0.869330737274,-0.803061567245,-0.520702538452
-0.0424817455787,3.15792666178,-0.702048503019,2.48262574964
0.130776042599,3.36652258629,0.578964561209,0.385954037726
1.18403383078,3.9451185108,1.37997762544,1.59928232581
-1.64270838104,3.28371443531,1.36099068967,1.0126106139
-0.999450592863,5.45231035982,2.85200375389,4.03593890199
2.43380719532,2.50090628433,2.28301681812,2.58926719008
5.17706498349,0.669502208842,1.04402988235,1.66259547817
8.61032277167,0.968098133355,1.18504294658,3.43592376625
12.1835805599,2.46669405786,1.77605601081,2.72925205434
8.77683834803,4.54528998237,1.94706907504,3.95258034243
6.62009613621,2.38388590688,1.81808213927,5.76590863052
3.26335392439,0.872481831393,1.85909520349,2.26923691861
-2.27306686045,-0.860686773249,2.01493822674,1.94760537791
-3.78749075832,-3.86178324139,0.777746778291,-1.25112413592
-4.76191465619,-5.84287970953,0.800555329837,-1.99985364975
-4.46633855406,-4.44397617766,1.66336388139,-0.18858316357
-2.37076245192,-3.6650726458,1.14617243293,-1.1373126774
-1.87518634979,-1.66616911394,1.36898098448,0.663957808779
-1.54961024766,-0.537265582076,0.541789536026,1.37522829495
-0.134034145522,1.33163794978,1.22459808758,-0.153501218871
1.91154195661,3.47054148165,3.07740663912,1.8577692673
0.887118058741,1.86944501351,4.17021519067,4.59903975348
-1.11730583912,-0.931651454626,1.87302374222,1.55031023965
-0.161729736988,-1.30274792276,-0.544167706237,0.051580725828
3.06384636514,4.1461556091,0.628640845311,-0.627148787998
6.26942246727,7.17505914096,3.40144939686,7.79412169818
4.69499856941,2.04396267282,3.06425794841,7.63539218435
-6.65942532846,1.09286620469,1.24706649995,0.0266626705261
-9.61384922632,-0.438230263451,-0.140124948499,-0.382066843299
-5.11827312419,-1.53932673159,2.05268360305,-4.54079635712
-5.13269702206,-2.67042319973,0.615492154597,-3.11952587095
-3.50712091992,-2.25151966787,0.138300706143,-8.39825538478
-0.28154481779,0.707383863995,2.91110925769,-5.4269848986
1.85403128434,1.90628739586,3.19391780924,-2.24571441243
3.23960738648,3.12519092772,1.60672636078,-0.744443926251
5.06518348861,5.39409445958,2.31953491233,4.20682655992
4.80075959074,5.47299799144,4.33234346388,3.1280970461
5.28633569287,4.06190152331,2.71515201543,2.42936753227
5.15191179501,3.22080505517,1.30796056697,1.57063801845
2.48748789714,2.02970858703,0.880769118523,1.97190850462
2.65306399927,1.21861211889,0.453577670069,0.493178990797
3.6686401014,0.447515650754,0.0463862216147,-1.14555052303
4.30421620354,2.89641918262,0.359194773164,2.73571996315
8.68979230567,3.55532271448,-1.29799667529,6.05699044932
8.52536840781,3.21422624634,-2.69518812374,2.7882609355
6.45094450994,5.01312977821,-0.842379572194,-0.30046857833
6.32652061207,9.02203331007,0.300428979353,5.69080190785
3.43209671421,12.9009368419,3.5132375309,12.612072394
-0.782327183664,8.05984037379,3.15604608245,10.6833428802
0.653248918472,1.32874390565,-2.71114536601,0.144613366369
2.02882502061,-1.14235256249,-4.13833681446,-1.44411614746
1.72440112274,-3.50344903062,-2.69552826291,-0.372845661281
3.96997722487,-6.14454549876,-2.80271971136,-1.05157517511
0.105553327005,-3.9856419669,-1.30991115981,-1.82030468893
-2.80887057086,-2.89673843504,-0.687102608268,-5.03903420276
-1.01329446873,0.822165096826,-0.33429405672,-1.42776371658
-4.1077183666,-0.128931371313,1.02851449483,-0.606493230407
-0.902142264462,-3.56002783945,-0.478676953626,-0.815222744232
3.01343383767,-7.32112430759,-2.89586840208,0.296047741942
3.4290099398,-8.51222077573,-3.05305985053,-4.11268177188
-0.0254139580647,-9.17331724387,-3.34025129898,-4.54141128571
-0.869837855931,-11.824413712,-5.93744274744,-7.05014079953
1.7357382462,-10.8955101801,-5.92463419589,-6.24887031336
0.691314348333,-11.6166066483,-6.06182564434,-6.16759982718
-3.92310954953,-10.0677031164,-5.07901709279,-7.13632934101
-4.9475334474,-9.10879958455,-5.05620854125,-5.41505885483
-2.30195734527,-9.07989605269,-4.5733999897,-4.46378836866
-0.586381243134,-3.83099252083,-1.91059143815,-0.0425178824862
0.0491948589988,-2.75208898897,-0.867782886604,1.51875260369
3.22477096113,-3.27318545711,-0.354974335058,1.53002308986
5.45034706327,-3.41428192524,-0.622165783509,1.28129357604
8.0959231654,1.04462160662,0.850642768037,4.58256406221
9.80149926753,3.31352513848,0.353451319585,6.65383454839
7.75707536967,5.04242867035,-0.813740128868,6.42510503456
8.2826514718,5.88133220221,-0.640931577322,6.97637552074
12.1382275739,11.4402357341,-0.128123025772,12.6076460069
12.6838036761,7.96913926593,0.384685525774,15.5689164931
2.1193797782,2.36804279779,-0.472505922678,3.88018697926
-8.51504411967,4.12694632966,-2.85969737113,-1.28854253456
-5.21946801753,6.64584986152,-2.99688881958,2.10272795161
-4.8038919154,5.51475339338,-1.17408026804,1.73399843779
-0.238315813269,3.49365692524,-0.77127171649,1.26526892396
-0.922739711135,4.6025604571,-0.548463164941,3.73653941014
-1.697163609,3.89146398897,0.0943453866057,1.82780989631
-4.72158750687,2.95036752083,0.227153938155,-0.680919617515
-8.42601140474,1.90927105269,-0.4500375103,-0.589649131342
-8.6004353026,-1.45182541545,-1.12722895875,-6.54837864517
-9.41485920047,-3.83292188359,-2.5344204072,-8.18710815899
-10.5192830983,-1.78401835173,-2.24161185566,-8.12583767282
-8.8337069962,0.32488518014,-2.69880330411,-7.92456718664
-8.39813089407,-1.646211288,-3.52599475256,-9.72329670047
-13.4025547919,-3.26730775614,-3.17318620101,-8.47202621429
-12.0969786898,-6.13840422428,-4.52037764947,-9.75075572812
-10.3414025877,-3.66950069241,-4.33756909792,-6.69948524194
-9.03582648554,-1.55059716055,-3.42476054637,-6.31821475577
-5.1802503834,-2.32169362869,-1.73195199483,-8.71694426959
-3.65467428127,-4.10279009683,-2.62914344328,-6.31567378342
-5.04909817914,-3.12388656496,-2.98633489173,-6.58440329724
-6.69352207701,-2.0349830331,-1.36352634018,-6.28313281107
-3.48794597487,1.61392049876,-0.740717788636,-4.5418623249
-1.11236987274,6.32282403062,0.532090762912,0.38940816128
4.86320622939,6.15172756249,1.20489931446,4.10067864745
7.41878233153,6.77063109435,2.69770786601,1.81194913363
6.37435843366,9.48953462621,3.94051641755,6.3432196198
2.8099345358,6.81843815807,3.0733249691,3.41449010598
0.675510637924,6.82734168993,3.39613352065,1.63576059215
2.16108674006,5.14624522179,4.4289420722,2.43703107833
0.496662842193,6.07514875366,3.95175062374,4.2383015645
3.03223894433,3.76405228552,3.37455917529,2.93957205068
1.55781504646,2.61295581738,2.82736772684,2.26084253685
-1.66660885141,-0.618140650757,0.280176278384,0.202113023027
-6.11103274928,-5.4792371189,1.23298482993,-7.6466164908
-7.84545664714,-7.43033358703,3.11579338148,-8.90534600462
-7.78988054501,-7.42143005517,2.97860193303,-9.36407551845
-9.63430444288,-6.91252652331,2.95141048457,-6.30280503227
-7.45872834074,-7.19362299144,1.24421903612,-5.9015345461
-5.39315223861,-7.98471945958,-0.362972412331,-7.34026405993
-6.09757613648,-6.00581592772,-0.440163860783,-6.02899357375
-4.28200003434,-6.30691239586,-1.01735530924,-7.73772308758
-5.36642393221,-4.548008864,-0.244546757687,-6.9764526014
-3.26084783008,-2.92910533213,1.13826179386,-1.97518211523
2.29472827206,-2.38020180027,0.801070345406,-1.24391162905
3.04030437419,-0.351298268408,-0.0061211030461,1.98735885712
5.13588047632,-2.44239473655,-1.5533125515,2.7386293433
4.76145657845,-3.21349120469,-1.73050399995,1.99989982947
2.21703268059,-2.97458767283,-2.1576954484,0.0711703156476
1.04260878272,-2.47568414096,-0.154886896857,-0.557559198178
4.09818488486,0.873219390902,0.69792165469,4.483711288
6.69376098699,5.33212292276,0.670730206239,10.0449817742
11.0193370891,6.64102645462,0.173538757785,9.18625226035
12.7049131913,7.80992998649,2.13634730933,11.1975227465
11.7804892934,7.62883351835,2.42915586088,11.5687932327
11.7860653955,6.74773705021,-0.0380355875732,8.41006371887
6.74164149765,3.82664058208,0.874772963974,5.32133420504
4.09721759979,2.56554411394,1.18758151552,5.34260469122
1.80279370192,-1.1555523542,0.69039006707,2.56387517739
0.648369804054,-3.17664882234,1.27319861862,-0.194854336431
-1.22605409382,-1.17774529048,2.45600717017,1.07641614974
-1.41047799168,-0.398841758615,2.53881572171,2.67768663592
-1.98490188955,0.680061773248,3.81162427326,3.89895712209
-0.674789244178,2.86496729653,-1.60351017442,-0.885101744187
-0.313039364351,3.0968969454,-1.04538402994,0.169843263595
-1.07128948452,4.37882659428,-0.357257885462,2.60478827138
0.570460395309,4.36075624315,-0.859131740983,0.0997332791603
0.0122102751375,4.72268589202,-1.3510055965,1.84467828694
2.18396015497,3.6846155409,-2.63287945203,3.05962329473
3.1257100348,4.22654518977,-1.65475330754,5.85456830251
3.90745991463,5.12847483865,-0.516627163066,6.34951331029
1.34920979445,6.54040448752,1.15149898141,3.73445831807
-2.04904032571,7.35233413639,1.81962512589,4.24940332586
0.592709554116,4.00426378526,0.117751270371,0.494348333638
1.86445943395,6.22619343414,1.36587741485,3.06929334142
2.43620931378,7.23812308301,1.06400355933,6.4442383492
4.9379591936,6.82005273189,-0.407870296191,4.00918335698
6.01970907344,8.86198238076,-0.129744151713,7.81412836477
8.81145895326,11.3939120296,0.0683819927654,7.83907337255
7.76320883309,11.6258416785,0.0465081372458,6.52401838033
5.71495871292,12.7077713274,0.534634281725,7.37896338812
7.68670859275,10.6297009763,0.192760426204,6.6639083959
10.2984584726,10.4816306251,0.120886570683,6.99885340368
13.9002083524,10.043560274,-1.47098728484,9.88379841146
10.3719582322,8.16548992288,-1.72286114036,8.74874341924
7.25370811207,7.23741957175,-1.08473499588,8.19368842703
8.2554579919,2.81934922062,-1.9766088514,4.67863343481
2.58720787173,2.8512788695,-0.508482706922,4.55357844259
3.16895775156,2.56320851837,-0.580356562443,2.96852345037
1.45070763139,2.43513816725,-0.492230417964,1.56346845816
-4.41754248878,-1.22293218388,-0.254104273485,-0.63158653406
-3.94579260895,-3.85100253501,-1.51597812901,-1.96664152628
-2.67404272912,-4.37907288613,-2.67785198453,-1.7216965185
-2.24229284929,-2.51714323726,-2.52972584005,-2.09675151071
-0.810542969459,-2.51521358839,-2.64159969557,-3.68180650293
-4.37879308963,-2.48328393951,-1.33347355109,-3.88686149515
-3.7270432098,-2.84135429064,0.024652593389,-1.71191648737
-4.17529332997,-4.59942464176,0.312778737869,-4.90697147958
-3.45354345014,-3.42749499289,0.310904882348,-2.5820264718
-0.0517935703137,-5.47556534402,0.749031026828,-3.06708146402
-1.57004369048,-6.18363569515,1.0571571713,-6.49213645624
-3.84829381065,-5.98170604627,0.875283315785,-4.40719144845
-4.44654393083,-9.8397763974,-0.316590539736,-7.89224644067
-2.63479405099,-12.0678467485,-2.23846439526,-10.2373014329
-3.63304417117,-12.2659170996,-2.49033825078,-8.47235642511
-4.12129429133,-9.23398745078,-2.4322121063,-5.46741141732
-2.70954441151,-6.6120578019,-1.45408596182,-3.05246640954
-1.11779453168,-6.27012815303,-0.96595981734,-4.99752140176
-0.646044651843,-2.82819850415,1.35216632714,-4.32257639398
-1.22429477202,-1.56626885528,3.12029247162,-2.42763138619
-2.83254489219,-1.71433920641,3.8084186161,-0.812686378411
-3.32079501236,-1.82240955753,2.92654476058,1.31225862937
-3.39904513253,-3.00047990866,2.36467090505,0.0172036371541
-3.0872952527,-3.41855025979,1.42279704953,-0.0478513550634
-4.18554537287,-9.50662061091,0.610923194014,-3.98290634728
-6.25379549304,-11.494690962,0.269049338493,-6.7479613395
-6.52204561321,-10.7927613132,-1.23282451703,-7.46301633172
-9.56029573338,-8.55083166429,-1.01469837255,-5.51807132393
-9.28854585355,-8.38890201542,-1.86657222807,-6.25312631615
-8.27679597372,-10.7969723665,-2.53844608359,-10.0681813084
-9.16504609389,-8.26504271767,-1.72031993911,-7.74323630059
-10.4832962141,-11.4331130688,-1.88219379463,-10.9782912928
-11.5515463342,-13.8211834199,-0.0340676501528,-15.963346285
-11.8997964544,-12.1992537711,0.814058494327,-14.3284012772
-7.13804657457,-10.2073241222,0.612184638803,-9.94345626946
-2.19629669474,-6.8853944733,1.43031078328,-5.82851126167
3.41545318509,-3.68346482443,1.62843692776,-1.16356625389
3.91720306492,-0.711535175556,1.97656307224,-0.128621246109
2.10895294475,0.0403944733189,1.72468921672,-1.13367623833
0.660702824578,-1.81767587781,1.5928153612,-2.11873123054
0.162452704404,-0.795746228934,3.57094150568,-1.62378622276
2.07420258424,-2.26381658006,2.78906765016,-3.04884121498
-1.07404753594,0.0181130688143,2.57719379464,-2.2838962072
-0.602297656103,2.89004271768,2.86531993912,1.20104880059
-0.510547776274,-0.818027633439,1.6534460836,1.33599380837
-4.72879789645,-1.43609798457,1.45157222807,-0.44906118385
-6.69704801662,-5.16416833569,0.619698372553,-8.38411617607
-6.82529813679,-7.79223868682,0.567824517031,-10.9691711683
-9.41354825696,-8.39030903794,0.655950661512,-9.1342261605
-10.8217983771,-6.32837938907,1.02407680599,-7.29928115272
-3.6900484973,-5.6764497402,0.0822029504707,-4.84433614494
1.77170138253,-3.36452009132,-0.0996709050523,-1.79939113715
1.75345126236,0.577409557551,0.318455239427,1.06555387063
0.485201142194,1.42933920642,0.966581383906,2.12049887841
-2.15304897798,2.0912688553,2.94470752839,3.59544388619
-4.67129909815,1.47319850417,3.95283367287,4.53038889398
-1.55954921832,2.54512815304,2.62095981734,3.26533390176
-1.13779933849,0.83705780192,1.38908596182,1.21027890954
0.763950541343,-1.8410125492,0.447212106301,-0.314776082678
0.615700421167,-3.30908290033,-2.12466174922,1.44016892511
1.827450301,-1.53715325146,-0.43653560474,2.77511393289
5.42920018083,-0.655223602589,2.06159053974,3.74005894067
5.86095006066,0.0167060462882,1.09971668422,3.92500394845
0.672699940489,1.49863569516,1.6978428287,2.80994895623
-0.195550179684,-0.279434655964,0.955968973176,4.68489396402
3.98619970015,-0.967505007091,-0.0959048823443,4.7298389718
4.88794957998,2.27442464178,-0.707778737866,6.32478397958
6.76969945981,2.75635429066,-1.49965259339,6.81972898737
6.46144933963,3.09828393953,-0.851526448907,4.51467399515
1.18319921947,5.9002135884,1.10659969557,6.16961900293
2.3349490993,6.37214323728,2.20472584005,5.30456401071
4.99669897912,10.3140728862,6.04285198453,8.07950901849
8.57844885896,11.166002535,4.89097812901,13.8944540263
8.73019873878,0.337932183898,-1.50089572651,5.46939903406
3.46194861861,0.859861832771,-2.55276958203,3.90434404184
-0.936301501555,1.11179148165,-0.904643437554,3.31928904962
-0.124551621728,-3.44627886948,-0.446517293074,-2.86576594259
0.00719825810302,-1.64434922061,-0.318391148596,-0.05082093481
2.53894813793,1.08758042827,0.979734995884,3.08412407297
1.96069801776,1.46951007714,2.73786114036,4.02906908075
1.94244789759,2.71143972602,2.39598728484,4.09401408854
3.80419777742,2.40336937489,1.25411342932,2.05895909632
5.86594765725,-1.39470097624,-0.1577604262,-1.1560958959
3.78769753708,0.247228672633,-1.00963428172,0.208849111884
-1.44055258309,2.21915832151,1.03849186276,-0.636205880333
2.63119729674,2.00108797038,1.72661800724,-0.721260872551
6.59294717657,2.84301761926,1.63474415172,1.33368413523
5.3646970564,4.52494726813,0.662870296195,3.61862914301
6.44644693623,4.726876917,-1.30900355932,2.9435741508
1.70819681606,0.468806565881,-3.16087741485,-1.88148084142
-0.480053304113,-1.71926378525,-3.59275127037,-5.22653583364
-2.01830342428,-2.02733413638,-4.29462512589,-6.14159082586
-5.25655354445,1.0445955125,-3.84649898141,-3.36664581807
-3.15480366462,2.63652516137,-3.58837283693,-2.70170081029
-3.32305378479,3.26845481025,-2.77024669245,-2.04675580251
-0.841303904963,5.11038445912,-3.44212054797,1.66818920527
2.56044597487,5.32231410799,-3.46399440349,1.08313421306
1.40219585469,7.11424375687,-1.79586825901,0.668079220839
-2.82605426548,9.95617340574,-0.147742114536,5.02302422862
-2.26430438564,7.70810305461,-1.37961597006,4.8879692364
2.05744549419,8.59003270349,-3.42148982558,4.02291424419
4.85945812807,9.90216748768,1.98790640394,8.76598522167
6.48026546251,8.49346195949,1.89224137931,9.87752599891
3.17107279693,7.83475643131,2.34657635468,7.22906677614
1.49188013136,6.69605090312,2.10091133005,4.51060755337
0.752687465785,0.83734537493,0.0652463054194,0.162148330597
-3.23650519978,-3.81136015326,-1.00041871921,-4.13631089217
-3.19569786536,-5.44006568145,-1.17608374384,-5.15477011494
-0.334890530932,-4.25877120964,-1.11174876847,-3.58322933771
0.8259168035,-4.09747673782,-0.567413793104,-1.38168856048
-1.12327586207,-5.80618226601,-1.10307881773,-4.18014778325
-2.83246852765,-5.6648877942,-0.928743842365,-5.68860700602
-3.71166119321,-5.71359332239,-1.774408867,-6.57706622879
-5.21085385879,-4.19229885058,-1.50007389163,-8.81552545156
-0.900046524363,-2.38100437877,0.064261083744,-3.51398467433
1.62076081007,-5.71970990696,-2.26140394089,0.567556102901
-2.7884318555,-6.69841543514,-4.51706896552,-2.52090311987
-3.70762452108,-1.65712096333,-0.622733990147,0.610637657363
-4.66681718665,-0.425826491522,1.23160098522,-1.26782156541
-1.07600985222,-1.81453201971,0.20593596059,-3.22628078818
-0.325202517794,1.2267624521,0.630270935961,-1.29474001095
1.48560481663,1.89805692391,-0.795394088669,1.44680076628
2.28641215106,3.07935139573,1.0589408867,1.27834154352
1.42721948549,3.10064586754,1.93327586207,0.909882320745
-1.19197318008,1.31194033935,1.06761083744,-0.288576902024
-2.51116584566,2.49323481116,1.85194581281,2.52296387521
2.23964148878,2.67452928297,0.806280788178,2.73450465244
