-3.97554505814,-4.28252180231,2.41578488372,-9.95590116279
-3.18363932887,-2.68869640976,2.47677769067,-8.09920636101
-1.05173359961,-3.7148710172,6.68777049762,-5.56251155924
-2.01982787035,-5.16104562465,5.66876330457,-3.79581675746
7.49207785891,1.72277976791,5.86975611152,8.70087804431
5.71398358818,8.18660516047,12.0207489185,12.7075728461
2.82588931744,6.62043055303,4.71174172542,-1.14573235213
4.82779504669,7.22425594558,0.852734532367,2.55096244964
2.62970077596,-3.21191866187,3.01372733932,-1.29234274858
-2.58839349478,-1.72809326931,-2.00527985373,-3.3656479468
-2.52648776551,6.11573212325,-0.134287046785,6.30104685497
-5.68458203625,4.19955751581,0.486705760162,2.25774165675
-3.142676307,2.52338290836,0.477698567112,-0.885563541476
-12.0507705777,-1.31279169909,-0.0313086259375,-0.8188687397
-2.69886484847,1.23103369347,0.789684181011,1.26782606208
-7.7069591192,-2.07514091397,2.03067698796,-3.75547913615
-7.02505338994,4.27868447859,1.93166979491,-1.08878433437
-7.46314766069,1.19250987114,1.41266260186,-0.0820895325951
-7.35124193142,-6.95366473631,1.98365540881,-0.745394730819
-15.1193362022,-6.12983934375,0.584648215758,-4.80869992904
-9.2074304729,0.0239860488073,-0.674358977292,-2.84200512727
-7.18552474363,-0.582188558634,3.07663382966,-4.82531032549
-6.99361901438,0.43163683392,2.61762663661,-4.27861552371
-6.57171328511,-2.69453777352,0.288619443556,-4.75192072194
-7.94980755585,-2.54071238097,-0.770387749493,-4.65522592016
-7.23790182659,4.57311301159,2.28060505745,1.27146888161
-4.02599609732,9.95693840415,1.5515978644,2.26816368339
-1.60409036806,1.9607637967,2.06259067135,-0.795141514833
-4.6021846388,-2.39541081074,2.9835834783,-0.858446713057
-0.900278909539,-1.99158541818,0.34457628525,-0.221751911281
-0.398373180273,6.55223997437,3.3055690922,4.5449428905
5.09353254898,7.42606536693,5.75656189915,6.71163769227
8.81543827824,4.45989075948,3.1275547061,2.98833249405
-0.65265599249,-3.63628384796,0.838547513045,-0.274972704176
0.639249736771,-1.3924584554,2.37954032,1.1817220976
5.73115546603,2.02136693715,-0.0294668730494,1.87841689938
4.7130611953,4.39519232971,-2.0284740661,3.42511170115
5.24496692456,1.15901772226,-2.43748125915,2.81180650293
4.49687265381,-6.23715688518,-6.08648845221,-3.69149869529
5.95877838308,-10.4333314926,-6.04549564526,-3.59480389352
7.22068411234,-4.79950610007,-1.52450283831,-2.51810909174
8.1325898416,-1.35568070751,-0.483510031358,-2.02141428997
10.0444955709,-3.03185531496,0.957482775593,-0.69471948819
9.85640130012,-4.1880299224,-0.481524417457,0.271975313586
2.85830702939,-8.03420452985,-2.72053161051,-4.51132988464
-0.509787241346,-8.09037913729,-4.42953880356,-8.01463508286
1.38211848792,-1.16655374473,-3.58854599661,-2.70794028108
-1.95597578282,-2.68272835217,-1.98755318966,-7.18124547931
-10.2540700536,-6.25890295962,-2.01656038271,-6.54455067753
-1.3421643243,-8.71507756706,-0.885567575762,-2.29785587576
4.58974140496,-5.85125217451,-1.27457476881,-1.80116107398
-6.12835286577,-5.55742678195,-6.27358196186,-5.8144662722
-1.39644713651,-7.87360138939,-7.10258915491,-8.33777147043
-2.31454140726,-11.9897759968,-7.09159634796,-8.82107666865
-7.29263567799,-8.98595060428,-7.91060354102,-7.85438186687
-1.06072994873,-7.02212521173,-7.75961073407,-3.3176870651
-2.45882421947,-5.78829981916,-5.79861792712,-4.92099226332
-1.6569184902,-4.28447442661,-7.41762512017,-2.68429746155
-2.40501276094,-7.68064903406,-6.68663231322,-3.07760265977
2.18689296832,-4.3468236415,-4.24563950627,-2.02090785799
0.748798697583,-1.82299824895,-3.51464669932,0.615786943783
3.40070442684,-1.85917285638,-3.76365389237,0.582481745559
2.63261015611,-4.76534746383,-5.50266108542,-1.49082345267
-2.60548411463,-6.39152207128,-6.45166827847,-0.904128650889
1.38642161462,-4.24769667872,-1.87067547152,-0.837433849112
3.02832734389,2.84612871383,-3.30968266457,0.639260952664
3.27023307316,6.23995410639,-4.54868985762,6.63595575444
3.30213880242,4.25377949895,-2.29769705068,5.90265055622
4.23404453167,1.7576048915,-2.28670424372,4.74934535799
0.98595026094,4.84143028406,-3.12571143678,3.21604015977
8.9578559902,4.26525567662,-2.70471862983,7.08273496154
11.9197617195,5.76908106917,0.636274177123,6.77942976332
5.83166744873,7.75290646173,-1.27273301593,6.0861245651
11.993573178,3.19673185428,-3.14174020898,4.66281936687
6.83547890725,0.360557246837,-3.75074740203,3.85951416865
6.24738463651,3.5443826394,-0.51975459508,1.96620897043
12.4792903658,10.628208032,1.17123821187,7.9829037722
6.72119609504,4.93203342451,-1.40776898118,3.15959857398
2.94310182429,3.38585881706,0.283223825769,3.12629337575
0.205007553559,4.77968420963,0.134216632719,5.60298817753
8.73691328282,6.27350960218,-2.33479056033,8.40968297931
9.39881901209,9.52733499473,-0.323797753383,6.95637778108
2.30072474135,8.92116038729,0.197195053566,6.56307258286
2.3526304706,1.61498577984,-0.341812139486,2.55976738464
6.68453619986,0.228811172405,-0.710819332537,2.38646218641
5.33644192913,0.482636564957,-1.63982652559,4.72315698819
0.858347658395,6.44646195752,0.901166281361,4.29985178996
1.07025338765,2.72028735007,-1.34784091169,1.42654659174
0.70215911691,-1.90588725737,-2.13684810474,1.65324139352
5.45406484618,3.61793813518,-0.515855297792,5.65993619529
4.88597057544,10.2417635277,3.59513750916,10.1566309971
3.8478763047,8.83558892029,0.926130316111,7.32332579884
5.35978203396,10.0694143128,0.46712312306,9.56002060062
2.43168776322,6.80323970541,0.0381159300086,6.4167154024
3.69359349248,4.14706509797,-0.670891263042,0.923410204174
9.38549922175,9.36089049052,0.930101543909,7.54010500595
1.54740495102,10.9247158831,4.56109435086,6.96679980773
-3.51068931972,8.12854127563,2.77208715781,9.2234946095
-0.96878359047,2.70236666819,3.78307996476,10.0801894113
5.08312213879,3.44619206074,1.6140727717,6.95688421305
6.14502786806,5.8200174533,0.775065578651,5.13357901483
0.23693359732,8.81384284586,3.1560583856,6.34027381661
-2.64116067341,0.597668238413,1.78705119255,1.31696861838
-3.02925494416,-4.47850636903,0.1680439995,-1.67633657984
-2.13734921489,-2.84468097647,-2.10096319355,-1.84964177806
-2.32544348563,-2.44085558392,-1.0599703866,1.99705302371
3.36646224363,4.33296980864,3.96102242035,5.00374782549
-0.0816320271042,5.92679520119,4.8220152273,7.47044262726
2.97027370215,1.99062059375,3.54300803425,4.67713742904
2.82217943142,-0.555554013692,5.2540008412,4.90383223082
-0.465914839318,12.6382713789,6.38499364815,6.05052703259
4.19599088994,7.12209677143,3.1359864551,0.71722183437
7.0478966192,-0.00407783601986,1.42697926205,-2.88608336385
-2.98019765153,-4.00025244347,-0.332027931006,-4.52938856208
-1.90829192228,-3.08642705091,2.96896487594,-3.3226937603
-1.58638619301,1.11739834164,2.64995768289,-1.41599895853
0.145519536251,4.6112237342,4.09095048984,-0.0193041567491
-3.43257473448,1.07504912675,7.12194329679,-1.00260935497
-7.51066900522,-6.41112548068,6.73293610374,-4.8459145532
-9.86876327597,-4.61730008813,5.25392891069,-6.26921975142
-8.6468575467,1.91652530443,3.27492171764,-5.50252494964
-5.59495181744,-2.14964930302,3.98591452459,-7.95583014787
-9.98304608818,-11.6058239105,0.70690733154,-12.5991353461
-12.0711403589,-16.5419985179,-0.62209986151,-14.6024405443
-16.4592346297,-19.1781731254,-2.03110705456,-17.0357457425
-15.5073289004,-14.9243477328,-2.40011424761,-17.2390509408
-11.3854231711,-12.1505223402,-3.92912144066,-14.922356139
-9.24351744186,-12.4166969477,-6.30812863371,-14.9456613372
-14.0394985465,-13.1132013081,-4.44492732558,-8.29614825581
-12.7677618568,-10.0249865238,-2.32002689526,-4.85348622619
-9.4060251671,-3.25677173938,2.04487353507,-0.900824196575
-4.96428847738,5.531443045,1.68977396539,5.20183783304
-6.18255178768,4.43965782938,2.02467439571,4.75449986266
-3.05081509797,0.0378726137642,0.199574826038,2.78716189228
-2.88907840825,-1.41391260186,2.01447525636,2.9198239219
1.13265828146,4.73430218252,3.95937568669,6.09248595152
-1.78560502884,2.7225169669,2.33427611701,5.96514798114
-10.6038683391,-1.67926824872,-1.49082345266,4.01781001076
-7.23213164942,-6.50105346434,-3.05592302234,3.01047204038
-7.44039495971,-3.17283867996,-1.12102259202,3.32313407
-3.26865827,4.29537610442,4.48387783831,5.87579609962
1.7930784197,3.3835908888,1.28877826863,5.08845812924
5.23481510941,5.64180567319,-0.866321301048,4.77112015885
4.06655179912,-0.769979542441,-3.12142087072,0.353782188475
1.90828848883,3.85823524194,0.883479559605,1.48644421809
5.14002517854,1.73645002632,-0.821620010072,2.35910624771
6.34176186825,8.8046648107,2.18328042025,2.74176827733
10.133498558,4.87287959508,-0.211819149423,4.68443030695
3.17523524767,-2.94890562054,-0.6469187191,1.50709233657
6.16697193737,-3.62069083616,-0.802018288774,1.28975436619
5.21870862709,0.957523948222,-2.16711785845,2.33241639581
6.17044531679,-2.6742612674,-4.84221742813,-2.22492157457
7.68218200649,-6.38604648301,-3.0073169978,-5.02225954495
6.31391869621,-8.28783169863,-0.812416567478,-3.29959751533
2.92565538592,-7.11961691426,-1.25751613716,-6.40693548572
5.26739207563,-2.07140212988,-2.93261570683,-4.5742734561
8.76912876533,4.9268126545,-3.32771527651,-0.0316114264779
6.01086545504,-7.47497256112,-6.21281484618,-7.31894939686
4.30260214475,-8.43675777673,-4.30791441586,-6.02628736724
6.80433883446,-6.61854299236,-5.76301398554,-5.55362533762
3.90607552417,-2.57032820798,0.791886444789,-5.800963308
2.55781221388,-1.43211342359,0.216786875117,-2.89830127838
7.64954890359,-3.42389863922,-3.35831269456,-4.90563924876
4.3512855933,-7.68568385483,-4.22341226424,-6.05297721914
7.593022283,-2.61746907046,-2.25851183391,-0.860315189525
12.7447589727,10.5707457139,0.606388596414,6.06234684009
11.8864956624,4.2989604983,1.66128902674,2.35500886971
17.2182323521,3.33717528268,1.03618945706,-1.02232910067
5.80996904184,-2.11460993293,-0.788910112617,2.98033292895
8.02170573155,-1.12639514855,-4.27400968229,-2.22700504143
3.54344242126,5.02181963582,-1.00910925197,1.27565698819
11.965179111,6.76003442021,-2.88420882164,4.78831901781
11.0569158007,7.07824920458,-2.38930839132,5.66098104743
4.45865249038,3.65646398896,-1.244407961,7.42364307705
3.62038918009,5.98467877335,5.04049246933,7.58630510667
6.2321258698,4.53289355772,1.91539289965,3.15896713629
5.28386255951,4.0911083421,0.870293329976,0.341629165905
0.785599249219,4.28932312648,0.755193760302,5.19429119552
4.91733593892,2.05753791086,1.65009419063,3.89695322514
0.679072628634,0.345752695241,1.05499462095,0.939615254762
5.43080931834,3.20396747963,3.19989505128,3.29227728438
-1.32745399195,4.322182264,1.9347954816,3.984939314
0.184282697759,2.80039704838,2.73969591193,3.46760134362
-0.0639806125328,0.458611832764,2.31459634225,4.63026337324
-0.0522439228225,-2.40317338286,-0.290503227428,2.12292540286
4.47949276688,4.42504140153,3.68439720289,2.79558743248
-2.50877054341,4.7532561859,3.50929763322,-0.711750537904
-0.967033853696,0.441470970283,4.81419806354,-2.14908850829
-6.47529716399,-4.04031424534,1.54909849387,-4.15642647867
-10.9735604743,2.10790053904,3.09399892419,-4.87376444905
-4.75182378457,1.40611532342,-0.071100645484,-3.80110241943
-11.8000870949,-0.82566989219,1.45379978484,-5.45844038981
-16.1183504052,3.62254489218,4.22870021516,-2.99577836019
-9.73661371545,-3.25924032344,3.62360064549,-2.68311633057
-10.6148770257,0.188974460951,3.26850107581,0.129545699049
-5.14314033603,9.77718924532,2.85340150613,4.80220772867
-1.02140364632,10.9454040297,3.67830193646,4.96486975829
-7.07966695661,6.96361881408,4.19320236679,-0.922468212094
-7.4279302669,2.94183359847,0.558102797109,-1.51980618247
-10.5861935772,1.76004838285,-1.69699677257,1.49285584714
-9.13445688748,2.02826316722,3.03790365776,-4.22448212324
-5.34272019778,8.26647795161,3.78280408808,-3.27182009362
-8.73098350807,-0.80530726401,0.877704518407,-9.969158064
-9.64924681836,-1.91709247963,-0.727395051268,-7.89649603438
-11.4675101287,-0.73887769525,-1.35249462095,-6.55383400476
-7.56577343894,4.09933708913,-0.827594190621,-4.43117197514
-8.38403674924,3.91755187351,-1.3626937603,-3.30850994552
-5.99230005952,-0.144233342115,-1.29779332997,-3.0258479159
-7.59056336982,-3.51601855774,0.69710710035,-5.37318588628
-14.2788266801,-11.6278037734,0.682007530675,-13.2605238567
-8.5670899904,-4.74958898897,0.346907961,-9.79786182705
-10.3153533007,-2.37137420459,-0.278191608675,-7.85519979743
-11.983616611,-4.63315942021,-0.143291178352,-7.87253776781
-7.67187992127,-6.48494463583,-0.158390748027,-6.99987573819
-8.55014323157,-1.94672985146,2.8165096823,-4.81721370857
-6.74840654186,-4.55851506707,0.141410112621,-4.81455167895
-5.88666985215,-3.3503002827,-1.31368945706,-9.19188964933
-3.81493316244,-2.81208549831,-1.70878902673,-7.38922761971
-6.14319647273,-11.1438707139,-0.233888596405,-7.45656559009
-10.401459783,-13.6656559296,-0.628988166081,-9.80390356047
-6.33972309331,-8.52744114518,-1.68408773576,-6.29124153086
-5.54798640361,-2.97922636079,-2.40918730543,-4.72857950124
-4.7662497139,-4.59101157641,0.0457131248913,-4.74591747162
-3.75451302419,-8.50279679203,0.010613555216,-4.723255442
-5.12277633448,-7.47458200765,2.49551398554,-2.25059341238
1.70896035523,-4.26636722327,0.770414415863,-2.19793138276
4.88069704494,3.93184756111,0.215314846188,1.88473064686
1.18243373465,3.38006234548,0.150215276513,5.19739267648
3.07417042436,-4.51172287013,-1.20488429317,3.2100547061
7.22590711407,3.26649191425,3.92001613716,9.75271673572
5.87764380377,4.27470669863,3.24491656748,9.46537876534
7.83938049348,7.45292148301,1.50981699781,10.268040795
6.24111718318,8.88113626739,2.82471742813,10.3107028246
6.4328538729,1.99935105177,2.87961785846,6.42336485419
2.60459056261,-1.66243416385,1.13451828878,4.47602688381
6.23632725232,2.60578062053,0.359418719105,5.01868891343
2.09806394202,7.43399540491,-0.625680850575,4.68135094305
3.31980063173,1.83221018929,0.339219579753,3.31401297267
4.87153732144,-2.83957502634,3.38412001008,2.73667500229
4.49327401115,-1.85136024196,1.4690204404,2.14933703191
-5.11498929914,5.65685454243,1.33392087073,4.01199906153
3.75674739057,6.1050693268,0.398821301049,5.21466109115
10.2584840803,0.743284111188,-1.25627826863,7.31732312077
9.51022076998,0.631498895571,-2.1913778383,7.48998515039
10.4119574597,6.19971367995,2.24352259202,5.08264718
5.2036941494,-0.822071535673,-1.96157697765,2.93530920962
3.62543083911,5.08614324871,-2.46667654733,3.19797123924
3.21716752882,3.29435803309,-0.181776117006,1.48063326886
4.12890421853,-4.05742718253,-2.61687568668,0.58329529848
5.17064090823,-4.00921239815,-4.87197525636,0.2959573281
9.49237759795,-0.580997613775,-2.94707482603,-0.201380642282
1.19411428765,1.06721717061,-3.64217439571,-1.51871861266
3.00585097736,-1.76456804502,-4.03727396538,-0.646056583044
0.357587667073,-7.35635326063,-2.71237353506,-3.41339455342
1.23932435678,-3.66813847625,-3.55747310474,-0.0207325238052
1.55106104649,0.760076308128,-4.09257267441,5.19192950581
12.4657231105,11.475625,4.40265988372,14.7394731105
9.26662707723,-0.944302411393,-0.668577870358,9.31592948865
4.737531044,-2.72422982282,1.42018437557,9.30238586683
9.13843501076,-2.20415723424,-0.451053378507,10.028842245
10.7193389775,1.71591535435,-1.03229113258,9.59529862319
13.8202429443,3.91598794293,-0.463528886656,12.8017550014
10.4511469111,2.02606053151,-0.0147666407283,10.7082113796
9.78205087782,0.9361331201,1.2439956052,11.1046677577
14.0829548446,4.69620570869,0.752757851122,16.3011241359
17.4138588113,11.3662782973,1.01152009705,17.3375805141
7.36476277811,11.4163508858,1.79028234298,16.3640368923
1.86566674487,5.10642347443,3.6790445889,7.32049327047
-2.30342928836,-3.20350393699,0.147806834826,1.29694964865
-4.3225253216,-2.66343134841,1.89656908075,1.39340602683
-0.571621354837,1.01664124017,-0.884668673323,2.49986240501
4.17928261193,3.32671382876,-2.7159064274,6.31631878319
3.79018657869,2.48678641734,-0.317144181474,6.45277516137
1.49109054546,-0.233140994082,-2.12838193554,5.18923153955
-4.77800548778,0.606931594499,0.030380310378,1.96568791774
1.31289847899,4.80700418309,1.65914255631,1.95214429592
-6.31619755425,0.957076771665,1.44790480223,-0.5013993259
-11.6352935875,-2.26285063975,0.556667048157,-5.58494294772
-6.50438962072,-9.83277805116,-1.36457070592,-7.17848656954
-8.34348565395,-9.17270546258,-5.08580845999,-7.19203019136
-9.20258168719,-4.002632874,-1.90704621407,-4.45557381317
-5.32167772043,-3.56256028542,-1.85828396814,-4.08911743499
-6.35077375366,-4.78248769684,-3.97952172222,-3.00266105681
-8.2598697869,-7.32241510825,-1.27075947629,-5.31620467863
-7.61896582014,-8.01234251967,-2.85199723037,-9.21974830045
-8.33806185337,-4.67226993109,-3.38323498444,-8.44329192227
1.8928421134,2.88780265749,-2.41447273851,-3.33683554408
-1.73625391984,3.25787524608,-0.755710492587,-2.9703791659
-3.97534995307,-8.51205216534,-1.93694824666,-7.05392278772
-5.88444598631,-4.19197957676,-3.69818600074,-4.29746640954
1.88645798046,0.638093011818,-5.07942375481,-4.28101003136
-1.74263805278,2.3481656004,-0.350661508885,-2.10455365318
3.05826591398,-0.701761811011,-2.63189926296,-3.96809727499
-2.16083011925,-5.32168922243,-4.30313701703,-9.21164089681
-5.15992615249,-9.20161663385,-3.33437477111,-11.5951845186
0.420977814269,1.53845595473,1.12438747482,-5.29872814045
-0.768118218963,4.24852854331,0.653149720743,-4.57227176227
1.2127857478,0.898601131899,-0.698088033332,-4.74581538409
-2.19631028544,-1.32132627952,-0.739325787406,-5.0893590059
-4.25540631868,1.02874630906,1.00943645852,-4.30290262772
-4.55450235191,10.5388188976,3.69819870445,3.55355375046
0.936401614861,9.67889148623,5.48696095037,2.52001012864
-0.0326944183762,3.01896407481,4.7357231963,-6.05353349318
-4.35179045161,-0.300963336609,7.50448544222,-6.897077115
-6.46088648485,5.02910925197,4.94324768815,-3.13062073682
-8.20998251808,0.29918184055,-0.127990065925,-7.00416435863
-6.42907855132,4.01925442914,0.0107721799977,-5.83770798045
-7.34817458456,0.809327017727,-0.360465574071,-8.37125160227
-7.6472706178,0.299399606309,2.79829667185,-7.60479522409
-7.09636665103,2.47947219489,4.63705891778,-5.59833884591
-2.96546268427,6.88954478347,5.3558211637,-3.47188246772
-3.3345587175,8.01961737205,1.45458340963,-6.67542608954
-9.86365475073,0.109689960635,0.133345655555,-11.3189697114
-3.81275078397,-1.96023745079,-0.777892098522,-10.5925133332
-0.311846817211,-2.15016486221,0.260870147409,-7.066056955
-0.470942850443,0.429907726379,-2.26036760667,-5.95960057682
2.03996111632,5.94998031496,-0.941605360742,-1.35314419864
-0.779134916913,2.81005290354,-0.932843114817,2.37331217955
3.04176904985,-1.89987450788,3.47591913111,-3.21023144227
6.72267301661,-0.789801919294,3.27468137704,-1.49377506409
1.48357698338,0.0202706692944,0.063443622963,-3.24731868591
7.68448095014,0.390343257874,-1.91779413111,-4.56086230773
5.62538491691,-4.40958415354,-5.19903188519,-5.95440592954
-0.233711116329,-8.57951156496,-3.47026963926,-8.49794955136
-1.45280714956,-2.06943897638,-3.20150739334,-3.79149317318
-0.961903182804,-2.8893663878,2.63725485259,-5.655036795
-4.24099921603,-6.96929379921,4.65601709851,-8.52858041682
-8.35009524928,-5.45922121063,1.01477934444,-3.64212403864
-1.67919128251,-6.67914862205,0.733541590369,1.63433233954
-5.66828731575,-8.81907603347,-2.02769616371,-1.85921128227
1.41261665103,0.100996555113,-0.528933917783,2.43724509591
1.02352061779,0.181069143691,-1.06017167186,1.89370147409
-1.57557541545,-4.72885826772,-1.30140942593,-2.76984214773
-2.11467144868,-9.83878567915,-1.47264718001,-5.88338576955
-3.04376748192,-7.68871309056,-1.24388493408,-5.13692939137
-6.17286351515,-4.99864050197,0.324877311847,-6.67047301318
-2.61195954839,-1.83856791339,-0.406360442226,-4.584016635
-1.43105558163,-5.22849532481,-3.9575981963,-4.27756025682
-5.28015161487,-8.94842273623,-4.84883595038,-7.24110387864
-2.0492476481,-1.60835014765,2.55992629555,1.39535249954
0.0516563186611,2.35172244094,2.29868854147,-0.358191122276
2.09256028543,-0.0282049704765,2.2074507874,-1.8217347441
-2.22653574781,-2.6581323819,1.07621303333,-0.585278365913
-0.775631781042,-6.51805979331,0.0749752792544,-3.31882198773
-1.43472781428,-1.02798720473,1.80373752518,-1.10236560955
-2.15382384751,0.632085383848,-0.0675002288954,0.324090768631
4.34708011925,-0.547842027569,-0.0887379829728,0.840547146813
-3.24201591399,-2.83776943899,1.64002426295,-0.712996475005
-4.07111194722,-3.05769685041,1.66878650888,1.44345990318
4.81979201955,-1.25762426182,3.59754875481,4.42991628136
2.02069598631,4.20244832677,3.28631100073,7.21637265954
7.84159995307,6.71252091535,1.05507324666,10.4428290377
9.33250391984,5.11259350393,3.63383549258,8.3992854159
6.5834078866,-0.0673339074929,-0.0274022614904,6.43574179408
3.28431185336,6.36273868109,0.941359984434,6.58219817227
4.30521582012,1.56281126967,1.12012223036,2.03865455045
-0.143880213109,4.50288385826,1.74888447629,3.58511092863
-0.782976246344,2.67295644683,-0.722353277786,4.98156730681
-1.39207227958,-1.36697096458,-2.68359103186,4.09802368499
3.35883168718,1.683101624,-1.54482878594,5.98448006317
2.14973565395,6.45317421258,-0.236066540012,7.54093644136
3.77063962072,6.28324680116,0.322695705916,4.73739281954
5.98154358748,5.44331938975,-0.698542048158,3.80384919772
0.342447554249,-1.02660802168,-0.419779802232,-0.119694424099
-1.85664847899,-1.10653543309,-2.81101755631,3.42676195408
3.23425548778,6.3435371555,1.66774468962,8.06321833226
5.23515945453,2.43360974408,1.28650693554,0.359674710446
-2.1239365787,-2.17631766734,1.22526918147,-0.143868911373
-4.18303261194,-6.79624507875,-1.7159685726,-1.58741253319
-10.4321286452,-10.9061724902,-0.477206326679,-10.270956155
-3.37122467841,-0.776099901595,-0.498444080753,-1.38449977683
8.19967928836,0.963972686986,-2.14968183483,6.83195660135
6.52058325512,-0.175954724429,2.4190804111,8.49841297953
-3.50851277811,-1.28588213585,0.497842657023,0.904869357717
-1.85760881136,10.6441904527,1.84660490295,5.9013257359
3.50329515542,13.3942630413,3.39536714888,7.40778211408
6.51419912218,8.3943356299,-2.6558706052,6.97423849226
-4.49489691106,0.674408218481,-4.79710835927,1.57069487044
-0.00399294429371,0.214480807066,-0.368346113348,1.62715124863
3.38691102247,-1.43544660435,-2.16958386742,4.16360762681
8.49781498924,1.21462598423,-5.7708216215,4.62006400499
4.058718956,2.00469857282,-0.0620593755739,6.30652038317
3.26962292277,-1.2352288386,0.906702870358,0.152976761352
3.31052688952,-5.04515625002,0.0154651162811,-4.33056686047
8.3532267442,2.85804142444,-0.116348110474,1.49625
8.69302090965,8.14066823271,0.593038277093,3.16667445866
9.98281507509,8.92329504099,-2.10757533534,5.58709891733
3.83260924053,5.51592184926,-2.91818894777,2.71752337599
0.88240340598,2.52854865754,1.49119743979,-0.932052165352
7.74219757142,0.551175465815,0.520583827358,2.51837229331
9.13199173687,8.92380227409,0.189970214928,6.65879675197
7.02178590232,10.2364290824,0.629356602491,6.53922121063
1.39158006776,2.89905589065,0.948742990058,2.21964566929
-0.448625766796,-0.328317301079,0.468129377623,-0.679929872045
3.91116839865,1.2743095072,-0.722484234808,-0.579505413383
7.0409625641,3.89693631548,-0.713097847241,1.38091904528
-3.10924327045,-0.220436876247,-0.213711459677,-4.23865649606
-2.48944910501,-6.63781006797,-5.40432507211,-9.6182320374
-0.809654939563,-4.03518325969,-2.91493868454,-4.61780757874
0.370139225881,-0.0425564514226,-0.945552296977,-1.45738312008
0.769933391326,1.13007035686,-5.19616590941,-1.69695866142
5.54972755677,-3.43730283486,-8.58677952184,-2.81653420275
2.57952172222,-2.99467602659,-7.79739313427,-2.47610974409
0.449315887665,-4.59204921831,-4.94800674671,-3.73568528543
4.33911005312,-5.51942241003,-3.78862035914,-4.05526082677
1.94890421856,0.973204398237,-4.26923397158,-2.77483636811
4.688698384,0.695831206518,-4.84984758401,-0.124411909448
-2.46150745056,-2.7315419852,-4.70046119644,-3.04398745079
-6.48171328511,-5.88891517693,-4.22107480888,-4.86356299212
-1.93191911966,-3.90628836865,-4.90168842131,-2.08313853346
