-13.5894549419,-6.08999636628,-1.87809229651,-10.6582013081
-17.9461588995,-18.5070744255,-3.95216761468,-20.6583748112
-22.6928628571,-13.2841524847,-1.41624293284,-17.7485483142
-24.0095668147,-8.72123054385,-0.640318251008,-13.4687218172
-16.8662707723,-4.99830860305,2.40560643083,-7.50889532024
-17.6629747299,-3.75538666224,-0.248468887339,-1.35906882325
-12.3596786875,-2.42246472143,1.7774557945,-1.34924232628
-9.21638264511,-0.609542780625,2.47338047633,-1.1594158293
-10.0330866027,-0.126620839816,-0.640694841833,-0.499589332321
-11.0797905603,-0.203698899008,0.82522984,-2.23976283534
-11.0064945179,-7.2307769582,-0.328845478163,-4.07993633836
-10.0131984755,-6.27785501739,-0.37292079633,-0.630109841386
-10.9699024332,-11.2949330766,-2.01699611449,-8.93028334441
-10.4166063908,-9.48201113578,-1.09107143266,-12.2804568474
-9.36331034838,-11.519089195,-3.08514675082,-11.9306303504
-1.51001430598,-7.37616725416,-2.67922206899,-8.86080385347
-3.77671826359,-3.12324531336,-1.28329738716,-7.18097735649
-15.7534222212,-1.61032337255,0.0226272946802,-5.07115085951
-0.250126178809,-5.01740143174,-4.95144802348,-8.18132436253
4.09316986358,-10.9944794909,-3.73552334165,-9.45149786555
0.0164659059737,-8.53155755013,-1.03959865982,-7.21167136858
5.69976194837,-1.83863560932,-0.673673977981,-1.6818448716
0.183057990756,3.05428633149,1.23225070386,1.36798162538
2.16635403315,8.0872082723,1.68817538569,7.56780812236
4.53965007554,4.9901302131,2.99410006752,6.95763461934
3.09294611793,1.05305215391,0.810024749358,2.44746111632
9.91624216032,0.255974094718,-0.454050568807,0.467287613297
-4.60046179728,0.718896035525,0.051874113029,-1.71288588972
-0.237165754896,8.61181797633,3.16779879486,3.32694060725
6.1461302875,0.844739917142,1.2137234767,4.76676710424
5.27942632989,2.19766185795,-0.190351841467,5.08659360121
8.73272237228,7.80058379876,0.51557284037,5.25642009819
4.65601841467,3.20350573956,-0.168502477796,1.37624659517
7.38931445706,-0.40357231963,-0.402577795961,0.136073092148
9.52261049945,4.83934962118,2.75334688587,2.75589958913
8.14590654184,1.16227156199,1.41927156771,3.10572608611
8.57920258424,0.925193502793,-0.224803750458,3.28555258309
10.9524986266,-0.2018845564,-0.298879068623,2.13537908006
19.215794669,1.26103738441,-0.912954386788,2.66520557704
17.0090907114,0.893959325214,-1.50702970495,3.29503207402
7.1323867538,-2.85311873398,-1.17110502312,-0.495141429001
3.29568279619,7.19980320683,1.86481965872,3.78468506798
-1.07102116142,1.30272514764,0.390744340551,-1.88548843504
6.00227488098,7.01564708844,1.78666902239,-0.955661938064
0.575570923367,13.3785690293,3.88259370422,8.39416455891
-3.55113303424,3.64149097006,1.13851838606,7.12399105589
5.53216300815,3.90441291087,-0.55555693211,10.3738175529
0.0454590505415,8.51733485168,1.67036774973,11.0336440499
3.42875509293,8.04025679248,4.18629243156,6.93347054683
1.69205113532,13.8131787333,7.0522171134,7.21329704381
-5.42465282228,10.5861006741,7.62814179523,9.70312354079
-4.61135677989,16.2990226149,8.34406647707,13.2229500378
-1.9880607375,15.9019445557,8.1099911589,13.8127765347
1.23523530489,20.0748664965,8.92591584073,18.3526030317
2.93853134728,10.0277884373,5.98184052257,12.8924295287
4.29182738967,8.11071037813,3.9577652044,12.4322560257
6.42512343206,10.4036323189,3.97368988624,12.2420825227
8.21841947446,20.7165542598,7.19961456808,9.92190901964
3.96171551685,9.79947620056,5.39553924991,6.20173551662
5.24501155924,3.57239814136,1.09146393174,6.3015620136
4.19830760163,-5.53467991783,-1.56261138642,2.66138851058
3.29160364402,10.168242023,5.22331329542,9.91121500756
0.174899686412,25.4711639638,6.74923797725,16.5810415045
11.9381957288,6.7240859046,2.96516265908,4.23086800151
5.53149177119,-6.6929921546,-3.08891265908,-7.08930550151
5.09478781359,-14.3700702138,-12.2429879772,-7.94947900453
2.68808385598,-14.767148273,-5.72706329541,-6.68965250755
0.481379898371,-3.88422633217,-2.90113861358,-0.649826010573
3.26467594076,15.5686956086,4.68478606826,7.43000048641
6.06797198315,-8.80838245056,-6.05928924991,1.19982698338
11.5712680255,-7.94546050975,-7.90336456807,6.08965348036
9.72456406794,-4.49253856895,-5.05743988624,4.75947997734
12.8678601103,-1.03961662814,-4.6415152044,0.919306474319
14.0411561527,-3.23669468733,-6.97559052257,-0.930867028699
6.73445219511,-5.71377274652,-9.31966584073,-2.44104053172
5.3577482375,-7.98085080572,-6.4937411589,-2.99121403474
6.84104427989,-4.76792886491,-4.17781647706,-3.07138753777
7.27434032228,9.9049930759,-0.951891795226,0.208438959213
14.7676363647,5.10791501671,-3.93596711339,3.31826545619
14.0209324071,2.03083695752,0.739957568441,8.04809195317
8.95422844946,-3.67624110168,-2.89411774972,0.49791845015
11.3075244918,-11.2233191609,-9.20819306789,-3.13225505287
15.2108205342,-6.74039722006,-6.49226838605,0.0275714441086
9.58411657663,-2.76747527926,-5.18634370422,-0.382602058911
15.967412619,14.0454466616,2.41958097762,4.87722443806
11.1007086614,-1.18163139764,0.175505659452,-1.84294906495
7.53400470381,-2.50870945683,-0.508569658714,-1.92312256798
9.4373007462,3.57421248397,1.37735502312,0.0967039290008
6.97059678859,-2.53286557522,-2.58672029504,2.07653042598
5.10389283098,0.81005636559,-0.120795613208,-0.983643077041
9.68718887337,1.4929783064,0.695129068627,4.12618341994
7.10048491576,0.555900247204,0.0510537504615,-2.05399008308
8.16378095816,17.688822188,-1.9530215677,4.43583641389
3.96707700055,-19.3582558712,-8.82709688587,-9.07433708913
1.97037304294,-11.3153339304,-6.82117220403,-8.62451059215
2.24366908533,-11.2424119896,-4.5752475222,-5.99468409517
1.15696512772,-2.91949004876,0.480677159634,-1.09485759819
4.34026117011,12.403431892,3.30660184147,8.99496889879
10.2035572125,5.19635383286,1.91252652331,5.31479539577
-1.4131467451,0.229275773665,0.958451205141,2.89462189274
-6.42985070271,-2.35780228553,-0.265624113026,7.05444838972
-2.19655466032,7.40511965528,2.63030056881,11.4442748867
2.75674138207,0.388041596087,-1.90377474935,4.08410138368
-0.72996257554,-12.1990364631,-5.26785006752,-7.28607211934
0.693333466852,-6.7361145223,-3.84192538569,-5.21624562236
-4.59337049076,0.176807418509,0.273999296149,-3.57641912538
-4.86007444837,-3.43027064068,0.199923977985,-5.0065926284
-6.61677840597,-5.60734869988,-0.534151340182,-6.28676613142
5.05651763642,9.10557324093,6.90177334165,1.90306036555
-1.32018632119,-1.36150481826,3.41769802349,1.13288686254
-9.0968902788,-11.6085828775,1.06362270532,-2.74728664049
-7.45359423641,-4.35566093665,1.44954738716,0.472539856491
-5.77029819401,0.487261004162,-0.624527931008,-2.59763364653
-10.0970021516,5.05018294497,3.37139675083,-2.27780714955
-5.59370610923,-0.946895114224,1.36732143266,-1.01798065257
-7.55041006684,-7.73397317342,-0.506753885502,-7.46815415559
-13.0171140245,-1.04105123261,-0.220829203667,-7.90832765862
-14.2838179821,-11.0581292918,-4.57490452183,-7.91850116164
-17.6105219397,12.594792649,6.08102016,2.64132533534
-25.5372258973,-8.20228541019,2.82694484184,-8.72884816768
-22.1739298549,-9.68936346938,0.912869523672,-12.6090216707
-13.6206338125,-10.2564415286,0.698794205508,-13.1791951737
-9.9273377701,-1.91351958776,1.37471888734,-10.3793686767
-15.7340417277,-7.08059764696,0.290643569177,-8.84954217976
-17.8207456853,-4.72767570615,-0.863431748989,-4.87971568279
-13.3874496429,1.43524623466,1.31249293285,-0.759889185807
-7.61415360054,9.39816817547,10.1084176147,0.879937311172
-5.35085755814,2.26109011627,2.78434229652,-1.45023619185
6.49425145349,6.84298328489,-4.22840479652,16.4657485465
5.66486240501,11.9024454084,1.47926939319,14.2525662367
1.76547335653,16.3219075318,0.0369435829016,10.9193839269
10.8160843081,6.34136965528,-4.04538222739,8.70620161714
7.53669525957,1.25083177875,-6.18770803768,7.81301930735
6.25730621109,8.01029390222,-4.32003384797,8.76983699757
8.19791716261,8.49975602568,-1.43235965826,9.05665468778
10.0785281141,-1.01078185085,-3.58468546855,4.47347237799
3.52913906565,11.1586802726,2.81298872115,10.7802900682
1.08975001717,2.33814239608,-3.48933708914,6.99710775842
0.390360968689,9.38760451955,0.388337100574,9.77392544863
2.13097192021,13.577066643,-0.963988709718,8.20074313884
-0.928417128271,-2.88347123352,-3.14631452001,-0.272439170945
-8.08780617675,1.97599088995,-1.7086403303,-0.805621480733
-0.307195225232,5.88545301341,-2.28096614059,5.07119620948
6.39341572629,0.0549151368814,1.45670804912,5.94801389969
0.984026677808,14.2443772603,7.85438223883,12.6948315899
-1.29536237067,3.68383938381,-1.31794357146,11.1916492801
3.61524858085,-5.15669849272,-1.52026938176,9.80846697033
9.29585953237,12.1027636307,2.51740480795,9.60528466054
11.1264704839,-2.76777424579,-4.33492100234,4.75210235075
5.44708143541,1.58168787768,1.61275318737,2.09892004097
8.28769238693,8.97115000115,3.16042737708,5.87573773118
11.9883033384,-1.05938787539,-0.0418984332118,3.95255542139
3.53891428997,9.50007424808,4.6357757565,6.9393731116
4.02952524149,-6.00046362845,1.15344994621,0.346190801814
4.46013619301,9.11899849501,8.16112413592,8.03300849203
-0.619252855475,-0.141539381522,0.878798325624,-3.01017381776
-1.64864190395,-15.6620772581,-1.14352748467,-3.85335612755
-1.17803095243,-2.75261513459,0.534146705042,-4.74653843734
-3.55742000092,-8.02315301113,-1.04817910525,-8.19972074712
1.92319095061,-9.95369088766,-0.410504915541,-6.11290305691
-2.52619809788,0.895771235808,3.37716927417,-1.55608536669
0.664412853645,3.25523335928,2.77484346388,1.68073232352
0.0650238051639,6.73469548274,4.97251765359,0.987550013728
-5.50436524332,9.56415760621,5.6101918433,2.46436770394
-3.6337542918,1.19361972967,1.797866033,-5.17881460585
-2.38314334028,-2.68691814686,2.69554022271,-5.43199691563
-6.11253238876,-1.62745602339,5.52321441242,-3.95517922542
-5.11192143724,-4.31799389993,-0.059111397868,-10.5283615352
-7.03131048572,-15.1485317765,-2.35143720816,-20.231543845
-5.7406995342,-3.53906965299,4.47623698155,-10.5247261548
-2.88008858268,2.78039247047,0.743911171257,0.332091535431
-3.90947763116,18.0498545939,4.22158536097,5.31890922564
-5.63886667964,2.7293167174,4.04925955068,-0.204273084146
-6.43825572812,3.20877884087,2.62693374038,-0.947455393933
0.0623552234028,-15.3717590357,-2.97539206991,-15.6906377037
-1.97703382508,-8.0522969122,-4.8277178802,-18.4938200135
-12.0964228736,-5.94283478873,2.68995630951,-13.1470023233
-13.105811922,-12.1633726653,-2.26236950078,-11.3201846331
-5.73520097052,-5.0039105418,-1.02469531107,-15.2733669429
-5.484590019,-10.0444484183,-2.42702112136,-10.0265492527
0.546020932521,-19.0149862949,-6.90934693165,-10.4697315624
-0.863368115961,-11.4055241714,-9.02167274194,-12.9729138722
-4.96275716444,-10.5660620479,-4.81399855224,-13.066096182
-9.52214621292,-6.97659992446,2.68367563747,-13.6692784918
-4.9415352614,-16.067137801,-6.13865017282,-12.2824608016
-3.08092430988,-11.2076756775,-4.95097598311,-12.1556431114
-2.04031335836,0.381786445934,-1.4333017934,-0.34882542117
-3.50970240684,8.8712485694,2.15437239631,-4.91200773096
-6.57909145532,-2.15928930713,0.662046586018,-11.8651900407
-11.0284805038,-27.9198271837,-7.56027922427,-24.7383723505
-8.45786955228,-26.0303650602,-8.17260503456,-19.7315546603
-6.80725860076,-9.23090293673,-2.73493084486,-9.16473697011
1.32335235076,1.47855918673,1.29274334485,-3.94791927989
3.83396330228,11.5080213102,3.94041753456,0.0488984103176
0.854574253797,-3.43251656634,-1.77190827573,-6.10428389947
-2.87481479468,-1.28305444287,-1.09423408602,-2.59746620926
2.25579615684,-1.1135923194,3.04344010369,1.11935148095
1.60640710836,-7.67413019594,1.5811142934,-3.17383082883
-2.35298194012,-9.69466807247,-1.97121151689,-6.72701313862
1.8476290114,-0.915205949002,0.906462672816,-0.830195448409
10.1482399629,-1.64574382554,0.864136862527,3.30662224181
11.1488509144,-7.82628170207,-1.87818894777,4.31343993202
6.15946186595,-1.3568195786,-2.85051475806,3.59025762223
-3.51992718252,8.44264254486,1.37715943165,7.01707531244
-8.549316231,-6.51789533167,1.38483362136,-1.50610699735
-8.27870527948,6.1615667918,-2.29749218893,0.080710692866
-2.24809432797,-3.34897108474,-3.84981799922,-6.42247161692
-4.88748337645,-9.34950896127,2.63785619049,-14.0656539267
-2.02687242493,-0.240046837805,5.1555303802,0.391163763506
-2.96626147341,-3.27058471434,1.36320456991,1.32798145372
-5.69565052189,-1.38112259087,6.82087875961,-2.17520085607
-3.55503957037,-1.61166046741,6.44855294932,-4.16838316586
-4.96442861884,6.33780165606,0.866227139033,5.05843452436
-7.58381766733,-3.29273622047,0.543901328741,5.77525221457
-3.29320671581,9.77672590299,7.79157551845,9.28206990478
-2.40259576429,-1.45381197354,-0.20075029184,2.90888759499
-1.19198481277,6.37565014993,4.67692389787,8.07570528521
-2.74137386125,14.9751122734,7.21459808758,5.32252297542
-1.87076290973,-16.0154256031,-4.49772772271,-4.44065933437
-1.20015195821,-2.14596347968,1.20994646699,-0.953841644157
-2.60954100669,5.55349864379,1.4476206567,5.86297604606
0.0510699448314,-4.09703923274,-1.99470515359,-0.000206263732252
3.96168089635,-5.82757710928,2.46296903612,1.63661142648
5.94229184787,-3.91811498581,-2.32935677417,2.48342911669
-0.427097200609,-5.12865286234,-0.45168258446,-2.1897531931
2.34351375091,-14.2591907389,-4.59400839475,-1.94293550288
-6.75587529757,-15.9697286154,4.44366579496,-11.4261178127
-1.41526434605,1.55973350805,5.65133998467,-4.98930012246
-1.84465339453,19.6591956315,9.16901417437,8.82751756776
-7.43404244301,-14.601342245,-0.363311635916,-5.61566474203
-6.18343149149,-9.98188012154,-3.06563744621,-4.65884705182
-1.33282053997,6.90758200192,4.6520367435,5.10797063839
-5.09220958845,-2.89295587461,4.03971093321,-1.2552116714
-3.77159863693,-0.243493751146,2.16738512292,-2.19839398118
-4.64098768541,-1.68403162768,-0.194940687374,-2.98157629097
0.809623266108,-1.31456950421,-7.98726649766,-1.32475860076
2.53023421763,-4.25510738075,-0.889592307954,1.20205908946
0.130845169149,-4.26564525728,-6.16191811825,-0.571123220332
-1.89854387933,11.2738168662,1.26575607146,8.92569446988
-3.19793292781,18.1732789897,6.62343026117,5.9525121601
-3.78732197629,-5.32725888688,-4.07889554912,-3.25067014969
-3.96671102477,-3.28779676342,-4.56122135941,-5.46385245948
0.213899926748,3.72166536005,-4.0235471697,-1.82703476927
-0.235489121733,12.5611274835,2.06412702001,5.63978292094
7.40512182979,15.100589607,-0.268198790283,8.34660061116
8.38573278131,2.82005173045,-3.80052460057,0.543418301368
6.30634373283,-4.77048614608,-2.02285041086,7.56023599158
9.47695468435,2.61897597738,-0.605176221155,9.05705368179
7.68756563587,16.5084381008,3.31249796855,11.603871372
3.95817658738,6.65790022431,-2.41982784174,8.99068906222
12.9587875389,6.60736234778,-3.02215365203,6.45750675243
10.5293984904,16.0268244712,2.86552053768,10.2843244426
13.6300094419,1.19628659472,-6.80680527261,6.55114213286
14.4106203935,11.1557487182,-6.9791310829,14.1279598231
7.93123134498,10.9152108416,1.09854310681,9.11477751328
7.3018422965,10.7946729651,1.77621729652,12.4915952035
-2.62928415697,-3.56398982558,4.67577761628,-11.2384738372
0.272230160466,4.42835031931,5.32946615775,-4.16596096182
3.5937444779,8.56069046421,4.54315469923,0.716551913567
-0.814741204671,7.8330306091,3.88684324071,-1.66093521104
-4.66322688724,-3.90462924601,-3.20946821782,-10.2884223357
-10.2717125698,-6.04228910112,-4.69577967634,-8.91590946026
-9.76019825237,2.49005104377,-0.642091134867,-5.64339658488
-6.59868393494,9.36239118866,-0.378402593393,-9.07088370949
-7.33716961751,0.544731333552,-1.59471405192,-8.7683708341
-12.0156553001,-0.732928521556,4.42897448956,-12.6358579587
-16.1041409826,-5.93058837667,-0.547336968964,-13.9233450833
-5.25262666521,-6.35824823177,-2.12364842749,-10.9808322079
-4.45111234778,-7.42590808688,-1.05995988601,-3.69831933254
-7.10959803034,-1.71356794199,0.963728655463,2.81419354285
-0.0980837129118,4.3587722029,0.30741719694,4.70670641824
1.01343060452,-5.16888765221,0.811105738416,4.09921929363
4.02494492196,4.52345249268,-3.17520572011,9.32173216902
1.11645923939,-6.55420736243,-4.50151717863,1.97424504441
9.24797355682,1.84813278246,0.982171362844,2.81675791979
12.2594878743,8.27047292735,1.19585990432,2.31927079518
2.82100219168,-4.29718692776,0.739548445796,-2.31821632943
5.19251650912,1.50515321713,3.39323698727,4.98429654596
1.18403082655,7.23749336202,3.58692552875,1.88680942135
-3.46445485602,-12.5001664931,-4.57938592978,-4.06067770326
1.21705946142,1.43217365181,-6.7156973883,-1.38816482787
-5.67142622115,0.954513796698,-2.30200884682,1.17434804752
-10.8399119037,-1.40314605841,-2.12832030535,-3.78313907709
-6.74839758629,-12.0508059135,-6.41463176387,-9.4206262017
-5.99688326885,-6.10846576863,-7.85094322239,-3.92811332631
5.66463104858,12.4738743763,-1.19725468092,9.02439954908
6.37614536601,0.846214521152,1.04643386056,3.53691242446
0.857659683445,7.47855466604,-0.749877597967,7.34942529985
4.10917400088,-3.50910518906,-4.06618905649,3.36193817524
-2.68931168169,-8.96676504417,-3.36250051502,-1.49554894937
-1.59779736426,-0.554424899283,-1.46881197354,0.886963926019
0.103716953174,7.12791524561,-0.965123432065,2.55947680141
0.385231270608,-2.6297446095,-1.76143489059,-4.2680103232
0.286745588041,-4.91740446461,-2.43774634911,-2.06549744781
0.708259905472,-13.0850643197,-11.1240578076,-6.18298457242
3.11977422291,-5.74272417483,-3.29036926616,-0.490471697034
3.32128854034,1.93961597006,-0.486680724684,4.08204117836
4.23280285777,23.051956115,5.05700781679,8.31455405375
9.9043171752,5.12429625984,-1.88930364173,9.69706692913
9.74583149264,-5.08336359526,-1.53561510026,5.05957980453
4.43734581007,8.16897654963,1.46807344122,3.53209267991
5.6688601275,-2.47868330548,-3.3682380173,0.284605555305
6.13037444493,-0.14634316059,0.175450524172,0.247118430692
3.71188876237,0.645996984302,-5.62086093435,2.04963130608
1.6934030798,-5.03166287081,-4.26717239288,-2.33785581853
4.03491739723,-3.54932272592,-0.8134838514,5.50465705686
1.50643171466,-5.25698258103,-1.78979530992,0.197169932246
5.4579460321,-1.70464243614,0.143893231552,-0.910317192363
2.12946034953,9.52769770876,2.32758177303,8.13219568303
5.70097466696,0.330037853646,-0.918729685496,2.82470855842
3.2624889844,-6.49762200146,0.0549588559788,-0.912778566195
6.53400330183,13.5847181434,3.52864739746,13.6297343092
5.32551761926,-1.28294171168,-3.65766406107,3.40224718459
10.0170319367,3.46939843321,-4.40397551959,4.82476005998
8.37854625413,5.4517385781,-3.65028697812,6.47727293536
2.16006057156,6.69407872299,-1.69659843664,6.16978581075
4.10157488899,7.91641886788,4.28709010484,7.41229868614
0.123089206423,-5.91124098723,-1.84922135369,2.06481156153
-0.015396476143,-8.03890084233,-2.50553281221,-2.23267556308
-0.0938821587115,12.2434393026,5.95815572926,5.55983731231
7.92763215872,-12.8842205526,0.00184427074055,-1.5376498123
9.32914647615,0.448119592338,2.35553281222,9.20486306309
10.3606607936,2.61045973723,4.15922135369,14.3573759385
10.532175111,19.9627998821,11.0329098952,21.7298888139
0.173689428451,3.03514002701,1.94659843665,13.0424016893
0.685203745885,3.8974801719,4.62028697812,14.6049145646
-3.36328193668,10.1498203168,7.7839755196,12.51742744
-3.59176761925,-0.317839538315,1.46766406107,6.33994031542
-0.840253301818,5.23450060658,7.11135260255,6.82245319081
-0.848738984385,-5.59315924853,6.34504114402,2.4349660662
-0.207224666952,10.6091808964,10.2287296855,4.34747894159
-1.37571034952,-8.22847895875,-1.42758177302,2.52999181698
2.64580396791,-11.7661388139,-0.343893231548,1.35250469237
-1.22268171465,1.18620133103,3.95979530993,5.54501756776
-3.80116739722,-2.10145852408,4.5534838514,0.447530443143
-4.78965307979,-5.99911837919,3.35717239288,-3.40995668147
-8.34813876236,0.853221765703,5.18086093436,-1.56744380607
-8.14662444492,2.1855619106,5.68454947583,-2.35493093068
-4.57511012749,-0.602097944517,1.49823801731,-6.8524180553
-4.44359581006,-4.93975779962,4.08192655878,-7.28990517991
-8.94208149263,-10.0874176547,3.95561510026,-10.2273923045
-6.87056717519,-11.8250775098,1.93930364174,-9.58487942913
-8.16905285776,-12.922737365,1.37299218321,-11.1823665537
-6.94753854033,1.50960277994,7.43668072469,-3.33985367835
-8.6060242229,-10.1080570752,1.10036926616,-12.337340803
-3.08450990546,1.59428306972,2.21405780764,-5.17482792757
-1.77299558803,-3.30337678539,5.14774634912,-2.88231505219
0.528518729403,-0.811036640496,1.79143489059,-4.0298021768
-2.55996695317,5.4813035044,2.20512343207,-2.9372893014
1.99154736427,-4.69635635071,-1.16118802646,-1.74477642601
5.4330616817,-1.06401620582,1.98250051502,-1.21226355063
-2.39542400087,-6.28167606093,-1.2938109435,-2.40975067524
0.726090316566,10.810664084,-0.410122402027,4.67276220015
-0.0123953660022,-4.90699577115,-2.58643386055,-9.24472492446
-1.78088104857,-18.5346556263,-7.29274531908,-13.4122120491
-0.559366731135,-7.81231548137,-1.8890567776,-7.60969917368
-0.0978524137045,4.23002466352,5.65463176387,1.57281370171
0.103661903728,6.36236480841,4.63832030535,0.1553265771
2.75517622116,-1.10529504669,2.89200884683,2.91783945249
2.97669053859,7.0670450982,2.4256973883,3.40035232787
-1.39179514397,-5.01061475691,-1.94061407022,-4.31713479674
5.71971917346,-5.35827461202,-0.646925528743,-4.50462192134
9.31123349089,2.00406553287,1.61676301273,2.50789095404
5.08274780832,7.76640567776,6.55045155421,4.04040382943
6.66426212576,8.31874582265,3.34414009568,-1.02708329518
2.85577644319,-10.2889140325,-6.05217136284,-5.92457041979
-5.23270923938,-1.96657388757,-2.26848282136,9.8479424556
0.528805078056,6.76576625732,2.28520572011,8.03045533099
8.12031939549,5.14810640222,-3.33110573841,6.14296820638
3.27183371292,10.4604465471,2.58258280306,1.66548108177
-0.586651969646,-4.907213308,-3.80372865546,-7.76200604285
-2.50513765222,9.77512683689,-0.150040113984,-0.769493167456
-5.73362333478,-7.49253301822,-4.29635157251,-8.64698029207
-5.73210901735,-1.40019287333,-2.51266303103,-3.42446741667
-0.530594699916,0.78214727156,-2.09897448956,-5.96195454129
1.56091961752,11.6144874165,0.0347140519189,6.9305583341
-3.77756606505,2.90682756134,-5.0015974066,-0.0369287905087
-3.29605174762,6.47916770623,-2.77790886513,-5.33441591512
-2.89453743019,9.40150785113,0.345779676347,-2.89190303973
-5.22302311275,-11.936152004,-10.3905317822,-4.90939016434
1.31849120468,-4.76381185909,-9.9568432407,-2.68687728895
-8.06999447789,-3.3214717142,-6.68315469923,-5.48436441356
-4.94848016046,-3.97913156931,-6.97946615775,-2.12185153817
-0.236965843023,6.38320857558,0.314222383728,2.77066133721
-3.2911119186,-3.20014171512,1.40047601744,-7.62828851746
-6.15797802027,1.80580785914,-2.70269092772,-6.24131743844
-7.47484412195,-7.36824256661,-2.46585787287,-9.71434635943
-0.621710223622,-6.53229299235,-4.41902481803,-4.55737528041
-0.928576325297,21.8136565819,2.61780823681,7.27959579861
-0.825442426974,13.7296061562,0.574641291656,7.07656687762
4.49769147135,-6.71444426959,-4.5385256535,2.60353795663
10.0408253697,3.76150530466,-2.42169259866,9.21050903565
2.843959268,8.03745487892,1.41514045619,14.8674801147
1.07709316632,4.80340445317,0.421973511031,6.94445119369
4.09022706465,5.31935402742,0.148806565876,4.5314222727
2.50336096297,0.055303601679,1.61563962072,2.91839335171
7.5064948613,7.95125317593,-1.52752732444,9.79536443073
6.51962875962,8.31720275019,2.77930573041,6.95233550974
7.45276265795,-0.886847675562,2.23613878525,0.929306588758
8.43589655627,-1.14089810131,1.04297184009,14.0062776678
1.05903045459,31.8150514729,4.62980489494,12.4132487468
6.13216435292,5.2010010472,2.02663794978,6.7502198258
13.3552982512,4.01695062145,4.20347100462,7.19719090482
6.52843214957,10.9329001957,3.80030405946,10.1141619838
1.14156604789,-0.751150230039,1.61713711431,2.60113306285
1.54469994622,-5.67520065578,-0.786029830848,-0.13189585814
2.38783384454,2.17074891847,-0.969196776005,4.29507522087
-0.0690322571354,-18.4533015073,-0.642363721161,-7.64795370011
-1.99589835881,3.71264806698,2.43446933368,5.19901737891
1.60723553951,6.64859764123,4.01130238853,6.02598845792
7.37036943784,-3.20545278452,4.62813544337,-0.627040463063
5.65350333616,-3.14950321026,2.22496849821,5.75993061595
1.19663723449,15.316446364,4.74180155306,7.94690169497
-0.0502288671887,4.10239593824,2.8086346079,0.0138727739832
3.43290503114,-9.2316544875,-3.00453233726,-3.729156147
-0.103961070541,-2.29570491325,1.87230071759,-1.27218506799
-4.86082717222,-10.159755339,0.859133772432,-5.23521398897
-4.10769327389,-12.9638057647,-4.40403317272,-16.25824291
1.23544062443,-8.57785619049,-1.14720011788,-16.6412718309
2.90857452276,-14.6019066162,-1.49036706304,-3.17430075193
1.12170842108,-12.765957042,-4.2235340082,-5.20732967291
-4.73515768059,4.67999253228,1.37329904665,-7.9203585939
-2.32202378227,-6.93405789347,0.120132101491,-5.84338751488
1.11111011606,-2.36810831922,1.93696515634,-0.75641643587
0.12424401438,-3.83215874496,-1.46620178882,-3.72944535686
4.0573779127,5.49379082929,-2.05936873398,1.78752572216
3.57051181103,-1.74025959646,5.15746432086,-3.60550319883
4.01364570935,-4.3043100222,0.964297375709,-2.57853211981
5.21677960768,4.06163955205,-2.23886956945,-4.7115610408
-0.840086493998,-8.26241087369,-3.7520365146,-10.6645899618
-4.97695259567,-20.9364612994,-8.09520345976,-9.59761888277
-4.46381869735,-16.0305117252,-7.22837040492,-13.7506478038
-9.56068479903,5.41543784907,-2.57153735008,-7.68367672474
-3.8175509007,3.36138742332,-3.06470429523,-4.10670564572
-4.80441700238,-1.07266300243,0.122128759614,-6.27973456671
-5.54128310405,5.79328657183,3.68896181446,-4.74276348769
-9.00814920573,-14.6907638539,-3.6042051307,-6.22579240867
-2.5950153074,-6.79481427966,-3.19737207586,-2.06882132966
1.73811859092,18.1511352946,7.85946097899,13.9681497494
-1.52874751075,8.28708486884,3.35629403383,7.21512082837
-2.01561361243,-14.8469655569,-3.97687291133,5.44209190739
-0.322479714107,3.08898401735,0.609960143518,0.0290629863994
0.190654184218,-6.9850664084,-2.83320680164,-6.83396593458
-2.26621191746,-2.92911683414,0.263626253203,1.74300514443
-4.77307801913,-5.13316725989,0.860459308047,-8.10002377656
-3.47994412081,11.2627823144,3.81729236289,4.48694730246
-3.54681022248,0.918731888618,-1.26587458227,-2.53608161853
-7.97367632416,-12.0353185371,-5.40904152742,-9.55911053951
-2.99054242583,-16.7893689629,-6.11220847258,-9.7721394605
3.08259147249,-0.403419388618,0.164624582265,-1.48516838148
-8.74427462919,-9.75746981437,-2.32854236289,-8.18819730247
-3.78114073086,-17.1515202401,-8.03170930805,-14.1412262234
-4.15800683254,0.0444293341407,-2.05487625321,1.38574485556
-1.59487293421,7.86037890839,1.58195680164,4.13271593458
-8.16173903589,-8.07367151735,-2.27121014352,-3.94031298641
-3.26860513756,5.3622780569,4.71562291133,-1.26334190739
-0.86547123924,20.5482276312,7.03245596617,9.46362917162
-3.85233734092,-5.68582279459,-2.77071097899,-2.47939974936
-1.37920344259,2.69012677966,-2.84387792414,4.68757132965
-5.53606954427,-17.7539236461,-3.6870448693,-9.35545759133
-3.52293564594,-9.58797407183,-2.02021181446,-12.7984865123
-9.60980174762,-17.0320244976,-0.353378759613,-3.9915154333
-13.9666678493,-1.64607492332,-1.36654570477,-1.92454435429
-9.38353395097,4.03987465093,2.45028735007,-5.79757327527
-11.3304000526,0.0458242251862,5.21712040492,-4.79060219626
-5.61726615432,11.8417737994,10.2339534598,-1.13363111724
-3.064132256,-12.7622766263,-4.0992134854,-9.47666003823
-1.84099835767,-4.86632705205,-1.34238043055,-1.78968895921
-3.96786445935,1.5296225222,4.19445262429,0.997282119803
-1.90473056102,0.315572096455,0.541285679134,-0.0357468011825
-4.4615966627,4.32152167071,4.05811873398,2.22122427783
-2.53846276437,3.72747124496,-0.41504821118,-0.511804643153
-1.64532886605,1.78342081922,-1.85821515634,-8.47483356414
-2.20219496773,10.5593703935,4.03861789851,4.41213751488
0.0309389305985,14.8353199677,2.55545095335,10.9791085939
-1.44592717108,-4.91873045802,-4.07771599181,-2.36392032709
-3.55279327275,7.62721911623,1.23911706304,-0.536949248079
-1.69965937443,3.34316869049,0.625950117883,0.600021830935
-4.0965254761,2.05911826474,-1.86721682728,5.35699290995
-3.42339157778,-3.12493216101,0.069616227569,2.44396398897
4.55974232055,-7.80898258675,-4.63355071759,-3.45906493202
3.32287621887,11.5169669875,-3.58671766274,-3.202093853
-1.08398988281,10.5829165618,3.0601153921,17.604877226
0.479144015519,23.398866136,2.15694844694,11.921848305
-3.87772208616,7.40481571026,5.88378150179,6.48881938404
0.795411812167,3.45076528452,-0.279385443371,4.37579046306
7.22854571049,6.83671485877,-0.262552388527,8.67276154207
9.95167960882,0.832664433023,-3.64571933368,9.21973262109
9.12481350714,7.65861400728,0.281113721159,11.6767037001
10.1779474055,17.5245635815,5.097946776,9.86367477912
7.29108130379,-1.04948684422,-3.87522016915,-0.809354141868
5.43421520211,1.82646273004,0.43161288569,0.467616937149
5.38734910044,1.76241230429,-1.28155405947,5.77458801616
8.33048299876,18.1983618785,-0.284721004622,20.1415590952
8.75361689709,-12.8656885472,-2.05788794978,3.06853017419
3.81675079541,-10.6597389729,-5.84105489494,-8.94449874679
3.65988469374,2.48621060131,4.76577815991,-3.64752766778
-4.05698140794,-0.277839824441,-1.58738878525,-0.0105565887643
0.616152490384,6.41810974981,1.97944426959,-0.0135855097469
-8.77071361129,-3.81594067593,-4.04372267556,-5.74661443073
-5.30757971297,0.280008898322,-2.97688962072,4.67035664828
3.53555418536,-17.8540415274,-4.80005656587,-1.93267227271
5.45868808368,0.65190804683,-1.32322351103,1.59429880631
3.11182198201,-15.0721423789,-3.09639045619,-0.758730114674
1.14495588033,-1.87619280466,-0.0195574013451,-3.02175903566
4.02808977865,-13.2502432304,0.597275653499,-5.37478795664
6.59122367698,11.9957063438,1.19410870834,1.89218312237
3.6843575753,3.6216559181,6.16094176319,3.71915420139
4.12749147363,-1.64239450765,-2.47222518197,0.676125280399
1.94062537195,-8.81644493339,-0.585392127128,-8.65690364058
3.63375927028,2.45950464086,3.77144092772,-1.14993256157
4.7968931686,9.64545421511,11.3182739826,1.72703851745
0.760301598841,-8.19893895348,1.47671148255,-1.60153706396
3.85223090437,-1.88369729674,5.51097340803,-1.23692132279
7.5141602099,-15.78845564,2.1652353335,-0.23230558163
10.8960895154,-7.37321398324,4.18949725897,-0.987689840465
9.91801882096,23.1320276735,14.1837591844,5.0669259007
4.22994812649,8.66726933025,5.02802110991,2.07154164186
7.91187743202,-1.197489013,-0.187716964616,-3.38384261697
9.46380673755,5.96775264375,1.52654496086,-4.7192268758
0.43573604308,17.1629943005,8.91080688633,8.33538886536
2.14766534861,2.14823595725,-0.694931188202,2.93000460652
0.529594654141,-22.756522386,-5.29066926273,-8.24537965231
-2.05847604033,-11.3612807293,-4.98640733726,-3.69076391115
-0.0365467347983,-3.03603907251,-2.07214541179,0.803851830016
-1.56461742927,-9.36079741576,-2.68788348631,-5.96153242882
0.187311876261,-5.43555575902,2.23637843916,-12.0869166877
-0.990758818209,-10.4303141023,-3.28935963537,-11.8223009465
-2.73882951268,-6.47507244552,1.4349022901,-7.88768520533
-4.65690020715,-13.4398307888,-2.31083578443,-5.42306946416
-10.9649709016,30.965410868,9.43342614104,-1.978453723
-6.35304159609,-21.7693474753,-8.41231193349,-11.0738379818
-1.54111229056,-13.1041058185,-5.25805000801,-4.94922224067
-4.69918298503,1.15113583822,4.43621191746,0.655393500499
-2.9972536795,-4.55362250503,-5.00952615707,-1.54999075834
0.814675626032,-2.25838084829,-2.4252642316,-1.77537501717
-2.32339506844,3.49686080846,6.49899769387,-0.720759276006
-0.301465762908,-1.55789753479,6.57325961934,-3.42614353484
5.16046354262,-10.192655878,-0.992478455184,-7.54152779368
1.84239284815,-0.257414221292,-4.95821652971,2.56308794749
-0.875677846318,-9.13217256455,-5.12395460424,-5.68229631135
-6.20374854079,-20.8369309078,-7.45969267877,-16.8076805702
-6.08181923526,-5.88168925105,-3.9654307533,-5.83306482902
-3.65988992973,1.5935524057,-0.331168827826,1.16155091215
-6.5779606242,2.38879406245,-0.106906902354,3.08616665331
-6.50603131867,-2.33596428081,-2.97264497688,-2.72921760552
-4.70410201314,0.139277375942,-1.95838305141,-3.64460186436
-6.79217270761,-2.25548096731,-0.584121125939,-3.52998612319
-7.10024340208,-6.29023931056,1.03014079953,-5.18537038203
-9.56831409655,-7.56499765382,-4.875597275,-5.22075464086
-9.26638479102,7.96024400293,-1.49133534952,8.1438611003
-5.10445548549,-5.50451434032,1.51292657595,-6.52152315854
-7.55252617996,4.32072731643,-3.08281149858,1.66309258263
-4.39059687443,-5.07403102682,-2.01854957311,5.73770832379
-5.1386675689,4.80121062992,-1.92428764764,-1.01767593504
-2.10673826337,5.37645228667,3.17997427783,3.22693980612
-0.514808957836,-5.13830605658,-0.915763796696,-0.148444452712
0.0971203476929,13.6069356002,3.49849812878,4.95617128845
-0.250950346777,0.482177256914,1.36276005425,-3.89921297038
-1.52902104125,19.4474189137,8.78702197972,3.03540277078
4.55290826428,4.76266057041,-5.81871609481,4.85001851195
3.02483756981,3.72790222716,-4.57445416934,4.35463425311
-0.493233124656,-2.85685611609,2.53980775613,-0.140750005725
0.358696180874,9.53838554065,0.654069681606,10.0538657354
3.9306254864,5.6736271974,1.55833160708,7.59848147661
11.0625547919,3.28886885415,0.132593532549,15.6930972178
6.11448409746,34.8241105109,7.45685545802,16.1177129589
2.36641340299,1.01935216764,-0.898882616508,2.9323287001
1.34834270852,19.1845938244,3.13537930897,7.44694444126
-2.27972798594,16.3198354811,1.64964123443,6.73156018243
-3.13779868041,-13.8149228621,-5.62609684009,-4.6638240764
-3.98586937488,12.1203187946,1.06816508538,8.52079166476
-7.39394006935,0.0255604513841,-3.45757298915,0.0054074059226
-2.35201076383,-4.89919789187,-1.91331106368,-0.909976852912
0.989918541705,1.23604376488,0.110950861794,4.41463888825
3.43184784724,2.48128542163,-4.25478721273,9.72925462942
-0.936222847235,9.58652707837,0.379474712736,8.50387037058
0.595706458294,-10.8082312649,-5.46626336179,4.88848611175
0.607635763825,26.1770103919,2.92799856368,7.23310185291
-1.44043493064,-1.45774795138,-1.91773951085,0.347717594079
5.18149437489,-14.8025062946,-4.07347758538,-1.87766666476
4.30342368042,2.10273536211,1.9907843401,7.12694907641
9.18535298595,21.2779770189,6.87504626557,26.2315648176
7.87728229148,11.9932186756,9.69930819104,14.1261805587
-1.030788403,-1.38153966764,2.31357011651,7.1107962999
3.11114090254,-8.98629801089,-7.06216795802,7.68541204107
3.23307020807,8.54894364585,-0.0979060325481,5.68002778223
4.51499951359,6.8941853026,3.79635589292,10.9346435234
2.17692881912,8.91942695935,-6.6093821816,6.21925926456
-2.32114187535,-5.0853313839,-0.535120256132,-4.75612499427
-2.42921256981,5.61991027284,1.50914166934,7.39849074689
2.54271673572,-3.55484807041,-2.50659640519,2.42310648806
3.87464604125,9.45039358634,0.947665520282,8.49772222922
11.8465753468,15.9256352431,-4.45807255425,11.4523379704
5.03850465231,8.16087689984,-2.88381062877,8.09695371155
5.85043395784,3.16611855658,-3.7595487033,5.35156945271
6.04236326337,5.40136021333,-3.99528677783,0.0761851938769
5.0242925689,0.296601870079,-0.0310248523583,0.17080093504
4.71622187443,-12.4981564732,-0.806762926886,-0.214583323792
-7.54184882004,-1.64291481643,0.877498998583,1.47003241737
1.19008048549,14.9823268403,3.55176092406,-0.0553518414636
2.78200979102,-1.16243150293,-4.21397715047,-2.2907361003
2.61393909655,-6.22718984618,-1.189715225,-4.13612035913
5.46586840208,-0.281948189433,-1.24545329953,-5.23150461797
4.62779770761,0.173293467313,-5.33119137406,7.0831111232
3.57972701314,4.59853512406,-2.05692944858,6.47772686436
9.98165631867,-1.91622321919,-4.41266752311,-3.61765739448
12.5235856242,-0.400981562443,-1.20840559764,-1.85304165331
4.57551492973,-18.7157399057,-6.94414367217,-2.20842591214
1.31744423526,9.25950175105,-0.179881746701,-8.93381017098
0.799373540787,-10.1252565922,-0.325619821228,-15.9991944298
-1.06869715368,4.57998506455,4.75864210424,-5.00457868865
2.44323215185,7.3352267213,2.37290402971,1.50003705251
-2.25483854262,5.90046837804,0.127165955188,-6.31534720632
-6.18290923709,-23.8342899652,-8.28857211934,-19.3507314652
-4.29097993156,-12.8390483085,-3.94431019387,-11.386115724
-5.62905062603,3.19619334829,-1.2900482684,-8.10149998283
-7.2671213205,16.941435005,2.78421365707,-2.42688424166
-9.80519201497,-30.7633233382,-2.72152441745,-5.0622685005
-10.6432627094,-8.42808168147,3.52273750802,-6.53765275933
-7.37133340391,-0.092840024723,5.16699943349,-3.76303701817
-9.21940409838,14.542401632,8.81126135896,4.731578723
-10.1674747929,2.52764328877,6.88552328443,-4.20380553584
1.15445451268,-0.177115054479,5.4397852099,0.110810205326
1.49638381821,10.1381266023,3.95404713538,0.195425946491
-9.11168687626,-7.81663174098,5.41830906085,-10.2599583123
-0.229757570731,-11.8013900842,-3.98742901368,-4.78534257118
1.2121717348,12.3038515725,-1.18316708821,1.94927316998
1.64410104033,-4.60090677074,2.74109483726,-2.14611108885
-0.243969654141,1.69433488601,2.72535676273,-1.25149534769
0.167959651388,-11.9904234572,0.209618688205,-7.70687960652
2.58988895692,-20.6651818005,-6.66611938632,-9.36226386536
4.55181826245,-13.9699401437,0.0581425391465,1.26235187581
2.05374756798,3.815301513,3.68240446462,-0.153032383027
2.35567687351,1.04054316975,3.93666639009,-2.09841664186
0.537606179041,-18.8242151735,-4.69907168444,-10.1438009007
-2.07046451543,-14.5389735168,-0.754809758966,-5.12918515953
-2.9285352099,0.0562681399915,4.83945216651,-1.17456941837
-0.906605904369,22.4015097967,6.37371409198,4.5900463228
1.55532340116,-4.61324854651,-3.18202398255,12.954662064
-2.97850654069,-11.0194840116,2.36453851743,-3.56484738372
1.46821206625,15.5390437878,5.13154258606,7.28569647271
4.01493067319,7.03757158717,0.898546654682,13.9262403291
7.95164928013,8.94609938657,2.2455507233,17.0267841856
2.43836788707,-0.765372814038,-0.147445208073,0.0973280420185
1.24508649401,5.08315498536,1.42955886055,2.16787189845
-0.668194899054,-5.56831721525,-1.44343707083,-7.6515842451
-4.51147629211,12.1002105841,1.7035669978,3.49895961133
-13.4347576852,-17.7912616165,-5.60942893358,-10.1804965322
-4.71803907823,-23.5027338171,-7.23242486496,-21.3899526758
-4.51132047129,-12.1642060177,-8.10542079634,-15.9794088194
-9.40460186435,12.7543217817,4.29158327229,-0.748864962923
-10.2978832574,-10.5771504189,-9.24141265909,-10.0683211065
-6.81116465047,-23.8186226195,-10.8544085905,-10.09777725
-4.84444604353,-16.2300948201,-5.58740452184,-8.73723339361
-6.74772743659,-2.04156702069,-2.22040045322,-8.90668953718
0.748991170349,0.75696077871,1.83660361541,0.433854319261
1.57570977729,7.7054885781,-1.20639231597,0.814398175698
7.81242838423,21.0840163775,5.40061175265,3.80494203213
7.49914699117,-7.3174558231,-1.58238417873,8.26548588857
5.55586559811,-11.5989280237,-6.9353801101,4.076029745
6.65258420505,9.97959977569,2.89162395852,11.6065736014
8.76930281199,14.2881275751,7.53862802714,11.3571174579
5.46602141893,30.9266553745,6.52563209577,10.6376613143
2.05274002587,-2.99481682613,1.62263616439,-0.901794829246
8.72945863281,17.8937109733,2.45964023301,11.9387490272
6.87617723975,3.85223877267,-1.81335569836,8.89929288363
4.98289584669,-9.63923342794,3.27364837026,5.17983674006
1.84961445363,9.47929437146,7.06065243888,-1.4596194035
0.976333060567,-3.29217782915,4.7376565075,-7.83907554706
-2.72694833249,24.2563499702,0.144660576127,3.04146830937
-6.98022972555,-11.6951222304,1.65166464475,-9.96798783419
-3.55351111861,-20.266594431,-7.43133128663,-16.0974439778
0.963207488328,-9.74806663156,-4.464327218,-12.9369001213
-0.690073904732,-6.09953883217,2.68267685062,-13.0263562649
2.85664470221,2.91898896723,-0.950319080757,-4.11581240844
9.92336330915,8.69751676662,0.366684987865,4.19473144799
7.31008191609,-1.05395543398,-1.47631094351,-2.69472469557
2.79680052303,-0.0154276345856,-8.49930687489,-6.92418083913
4.36351912997,-6.05689983519,-5.06230280626,-6.5036369827
2.55023773691,-5.2183720358,-3.17529873764,-1.75309312626
-1.73304365615,9.2501557636,1.71170533098,8.74745073018
2.51367495079,3.64868356299,-1.8312906004,8.43799458661
3.09039355773,0.687211362392,0.555713468228,-0.671461556951
2.62711216467,6.13573916179,2.87271753685,5.15908229948
4.30383077161,18.5742669612,4.38972160547,10.2496261559
1.24054937855,5.26279476058,1.2067256741,2.44017001236
0.547267985488,3.66132255997,2.60372974272,3.1507138688
4.03398659243,7.29985035937,4.16073381134,1.56125772523
2.81070519937,-8.65162184123,-1.50226212004,1.96180158167
2.15742380631,3.33690595816,-10.0052580514,-1.37765456189
-6.31585758675,17.7954337576,-0.598253982789,-2.14711070546
-0.89913897981,-26.926038443,-3.36124991417,-12.656566849
-1.10242037287,-3.64751064365,1.77575415446,1.53397700741
1.42429823407,1.06101715574,0.20275822308,5.06452086385
-1.25898315899,-10.3304550449,-4.3202377083,-4.06493527971
-5.05226455205,-14.4019272455,-3.52323363967,-11.8243914233
-5.43554594511,-3.21339944607,1.32377042895,-6.42384756684
-6.72882733817,-2.46487164667,4.17077449757,-3.1633037104
-3.80210873123,-9.67634384728,2.9377785662,-6.45275985396
-7.39539012429,4.15218395212,5.96478263482,-4.27221599753
-7.75867151735,-4.64928824849,4.42178670344,-12.5216721411
-4.58195291041,-1.10076044909,4.63879077206,13.3588717153
1.36476569653,-5.8322326497,0.0457948406874,15.7394155718
-3.34851569653,3.1262951497,2.18279890931,-2.79004057178
-7.24179708959,0.114822949095,2.43980297793,4.44050328466
-6.65507848265,7.37335074849,4.60680704656,0.93104714109
-5.73835987571,16.7718785479,10.8738111152,4.47159099753
-5.16164126877,-15.7195936527,-4.39918481619,-1.71786514603
-10.0749226618,-16.5310658533,1.06781925243,-4.8273212896
-4.10820405489,14.0074619461,8.03482332105,3.85322256684
-4.57148544795,-4.37401025453,3.04182738967,-4.01623357673
-7.09476684101,7.70451754487,7.9588314583,0.204310279711
-5.88804823407,-3.70695465574,0.28583552692,6.85485413615
0.858670372872,-8.76842685634,0.362839595542,1.55539799259
2.58538897981,-8.32989905695,8.73984366417,6.82594184902
0.882107586751,-7.94137125755,-0.0731522672122,2.88648570546
1.10882619369,7.89715654184,0.143851801411,2.9970295619
1.51554480063,-1.61431565876,-1.45914412997,-1.66242658167
-2.37773659243,-1.57578785936,2.35785993866,0.098117274767
-5.41101798549,0.402739940029,0.92486400728,7.62866113121
4.95570062145,6.04126773943,-0.878131924097,7.52920498764
5.94241922839,11.5297955388,1.43887214453,5.88974884408
2.78913783533,1.54832333822,-0.624123786851,7.23029270051
9.20585644227,-12.6031488624,-3.15711971823,0.430836556952
9.32257504921,9.73537893701,2.26988435039,9.32138041339
10.5892936562,20.6039067364,5.23688841902,19.5119242698
5.94601226309,-6.7875654642,3.79389248764,9.49246812626
8.31273087003,10.8209623352,-7.04910344374,7.2730119827
3.84944947697,-2.07050986541,-2.99209937511,-3.41644416087
-0.533831916087,-10.101982066,-2.46509530649,-2.39590030443
3.82288669085,7.09654573338,-6.82809123787,-0.745356447991
-1.83039470221,-14.0549264672,-2.99108716924,-4.32481259155
0.786323904733,-4.63639866783,-6.42408310062,-1.63426873512
6.55304251167,-3.68787086843,-4.377079032,2.18627512132
6.37976111861,-2.97934306904,-3.33007496337,-0.183181022247
-2.02352027445,8.15918473036,-2.35307089475,2.84736283419
0.763198332492,16.5977125298,7.11393317387,9.70790669063
-2.29008306057,7.55624032915,-0.939062757505,-2.93154945293
-4.99336445363,-12.4152318715,-1.88205868888,-3.4710055965
3.25335415331,1.61329592794,-2.18505462026,5.88953825994
0.950072760252,0.101823727338,4.71194944836,5.28008211637
1.88679136719,-6.38964847327,6.37895351699,5.09062597281
0.463509974134,1.50887932613,-0.42404241439,8.33116982925
-1.27977141893,8.78740712552,2.07296165423,4.25171368568
-2.93305281199,6.40593492492,5.12996572286,-2.45774245788
-3.85633420505,8.87446272432,1.85696979148,-5.40719860144
-4.47961559811,5.49299052371,-0.356026139898,-0.656654745006
-2.04289699117,-6.16848167689,-8.54902207127,1.08388911143
-8.18617838423,-6.3299538775,-3.10201800265,-4.64556703213
-6.57945977729,-3.4814260781,-6.15501393403,0.0449768243016
-4.63274117035,-1.30289827871,-4.52800986541,-0.224479319259
-5.25602256341,3.87562952069,1.43899420322,0.236064537177
-5.94930395647,-0.445842679914,5.71599827184,-3.59339160638
0.227414650473,5.62268511948,0.193002340464,-5.23284774995
1.34413325741,-13.6187870811,-7.43999359091,-12.0723038935
5.30085186435,-17.3402592817,-5.95298952229,-8.35176003708
3.93757047129,-21.4417314823,-11.4559854537,-9.45121618064
-3.88571092177,4.56679631706,-7.50898138504,-10.6806723242
-5.17899231483,-2.59467588354,-9.35197731642,-10.9101284678
-2.99227370789,-3.47614808415,-2.5649732478,-8.34958461133
0.474444899053,-3.03762028475,1.77203082083,-4.10904075489
8.10116350599,15.5409075146,1.48903488945,6.08150310154
1.23788211294,0.739435314043,-0.883961041927,-4.29795304202
4.36460071987,6.15796311344,5.0530430267,5.76259081442
2.78131932681,25.3064909128,16.0400470953,11.4131346709
3.26803793375,-0.904981287771,1.92705116394,-4.12632147271
4.23475654069,-12.0464534884,4.96405523256,-7.48577761628
6.04824809862,10.434109625,-8.59861919749,9.12564647258
2.78970558014,-5.79257776459,-8.76699449253,-1.72753019224
6.09116306166,-4.11926515415,-5.54536978757,-3.89070685706
