14.2665952035,16.9723982558,4.1466315407,21.0761518895
10.1691808105,15.5483865707,5.74827907549,17.4702712988
12.2817664176,13.9243748856,6.28992661028,15.844390708
13.0443520246,13.1003632004,4.87157414507,13.4485101172
12.6569376316,12.2563515153,2.56322167987,12.9826295264
12.7395232387,15.8823398302,3.57486921466,15.0867489356
15.7321088457,15.008328145,4.90651674945,16.1108683449
18.7146944527,12.0943164599,3.82816428424,14.0549877541
16.6372800597,15.5603047748,6.42981181903,17.6491071633
17.5398656668,16.8362930896,7.13145935383,19.5132265725
13.2724512738,11.5422814045,6.90310688862,15.9773459817
13.1550368808,13.5182697194,6.26475442341,18.031465391
5.29762248788,8.64425803425,6.7664019582,14.5955848002
2.17020809491,7.60024634912,7.178049493,11.2397042094
8.55279370194,9.73623466399,7.34969702779,12.5538236186
6.49537930897,5.22222297886,4.39134456258,11.5979430278
4.157964916,8.73821129373,3.79299209737,13.2320624371
1.85055052303,5.65419960859,3.13463963217,14.1861818463
1.69313613007,7.49018792346,4.95628716696,14.0103012555
-4.30427826291,4.59617623833,3.17793470175,8.02442066471
1.43830734413,7.1021645532,2.34958223654,8.97854007393
4.36089295116,9.02815286807,2.76122977133,8.96265948315
-3.06652144181,7.37414118294,2.14287730613,7.12677889237
-3.45393583478,7.83012949781,4.05452484092,3.53089830159
-4.82135022774,4.97611781268,2.47617237571,4.98501771081
-3.23876462071,3.93210612755,0.507819910502,3.74913712003
-0.90617901368,5.87809444242,-0.0205325547058,7.57325652925
0.726406593349,9.52408275729,0.571114980086,10.8373759385
-2.12100779961,6.04007107216,0.602762514879,8.27149534769
-4.15842219259,3.97605938702,0.144410049671,6.03561475691
-4.00583658556,2.68204770189,-0.733942415538,5.75973416613
-0.173250978522,2.36803601676,-3.72229488075,5.72385357535
-0.800665371495,2.62402433163,-3.08064734595,5.55797298457
-0.558079764458,-2.4299873535,0.551000188839,-7.55790760621
3.30450584257,3.14600096137,2.44264772363,-2.95378819699
2.46709144961,8.60198927624,2.45429525842,8.22033121223
-0.910322943368,0.477977591105,-1.67405720678,0.984450621453
-11.6677373363,-5.02603409403,-4.61240967199,-6.68142996933
-14.3351517293,-14.7200457792,-3.7007621372,-9.23731056011
-8.95256612227,-14.1040574643,-4.58911460241,-14.3131911509
-14.5899805152,-13.8980691494,-4.05746706762,-18.9590717417
-14.7073949082,-21.5220808345,-4.20581953282,-26.9149523324
-14.9848093012,-18.5660925197,-3.30417199803,-21.2808329232
-11.8822236941,-21.1101042048,-3.82252446324,-20.006713514
-5.15963808711,-14.8441158899,-4.24087692845,-17.0825941048
-10.7770524801,-15.3081275751,-4.33922939365,-17.9784746956
-10.584466873,-19.8221392602,-5.01758185886,-21.1943552863
-10.941881266,-19.3661509453,-7.28593432407,-20.8602358771
-12.199295659,-16.2801626305,-7.45428678928,-22.1761164679
-6.99671005196,-15.4941743156,-6.30263925449,-20.3419970587
-6.73412444492,-19.6381860007,-7.43099171969,-22.4178776495
-5.22153883789,-13.7121976859,-6.1693441849,-17.1237582402
-7.10895323086,-15.566209371,-5.92769665011,-18.089638831
-7.17636762383,-22.1802210561,-7.90604911532,-24.2055194218
-8.92378201679,-17.0742327413,-6.28440158052,-17.5514000126
-13.2011964098,-15.5482444264,-6.14275404573,-15.3172806034
-6.56861080273,-16.8622561115,-6.58110651094,-19.7631611941
-3.8060251957,-14.8462677966,-4.19945897615,-17.5290417849
-4.83343958867,-16.2502794818,-4.65781144136,-17.2849223757
-5.40085398164,-12.4442911669,-3.63616390656,-13.1208029665
-4.48826837461,-7.90830285204,-4.40451637177,-9.88668355727
-0.0456827675735,-7.72231453717,-7.50286883698,-10.042564148
-4.16309716054,-7.6463262223,-6.13122130219,-9.34844473883
2.99948844649,-8.02033790743,-3.9295737674,-8.87432532961
3.44207405352,-17.1643495926,-6.2579262326,-14.6402059204
-0.675340339447,-8.77836127769,-5.22627869781,-7.06608651117
1.44724526758,-4.19237296283,-3.60463116302,-8.83196710195
-0.260169125384,-12.386384648,-6.96298362823,-18.4178476927
-2.47758351835,-11.7803963331,-8.11133609344,-14.4837282835
-3.78499791132,-7.28440801821,-7.15968855864,-12.4296088743
-7.41241230429,-10.9684197033,-7.08804102385,-16.0554894651
-2.13982669726,-11.1324313885,-5.48639348906,-16.4113700558
-2.94724109023,-2.86644307361,-3.41474595427,-6.36725064663
3.99534451681,5.54954524126,0.436901580526,2.49686876259
0.707930123837,-2.13446644387,0.738549115318,1.36098817181
-5.77948426913,-9.728478129,-3.31980334989,-12.384892419
-10.7968986621,-4.87248981414,-3.4881558151,-12.7407730097
-13.9943130551,-3.03650149927,-2.5365082803,-8.58665360053
-10.851727448,-4.6005131844,-1.33486074551,-10.9525341913
-9.51914184101,-2.44452486953,-1.08321321072,-6.86841478209
-5.27655623397,-2.99853655466,-2.41156567593,-6.30429537287
1.04602937306,-1.36254823979,-4.65991814114,-4.52017596365
3.44861498009,-0.826559924921,-4.35827060634,-3.21605655443
2.26120058712,0.139428389946,-3.71662307155,0.808062854792
6.50378619415,-2.46458329518,-6.34497553676,-1.11781773599
2.20637180118,-5.79859498032,-7.11332800197,-3.13369832677
3.22895740822,-0.422606665445,-5.38168046718,-2.43957891755
2.53154301525,1.63338164942,-4.47003293238,2.63454049167
5.07412862228,-1.40063003571,-5.30838539759,1.82865990089
2.71671422931,-1.48464172084,-2.9967378628,0.382779310112
10.3192998363,0.871346594031,-2.96509032801,1.36689871933
2.46188544337,5.9673349089,-2.10344279321,2.14101812855
-5.1355289496,2.35332322377,-0.101795258423,-5.47486246223
-11.0929433426,0.929311538639,2.07985227637,-4.69074305301
-9.87035773553,-1.43470014649,3.38149981116,-5.29662364379
-8.0677721285,-0.358711831625,3.35314734595,-4.49250423457
-2.70518652147,4.62727648324,7.20479488075,-2.36838482535
-10.6926009144,-2.94673520188,7.39644241554,-5.05426541613
-10.7800153074,-4.61074688701,6.78808995033,-4.14014600691
-11.3474297004,1.08524142785,8.24973748512,-3.08602659769
-13.0748440933,4.89122974272,9.98138501992,-1.70190718847
-10.4422584863,5.76721805759,11.6730325547,4.00221222075
-11.9196728793,2.67320637246,10.8746800895,3.55633162997
-9.35708727224,-1.12080531267,8.40632762429,-0.959548960808
-5.94450166522,-1.8848169978,6.91797515908,-1.05542955159
-7.31191605819,1.47117131707,4.93962269388,-1.81131014237
-8.41933045115,1.03715963193,5.40127022867,-1.18719073315
-6.67674484412,-1.75685205319,4.65291776346,0.756928676071
-3.10415923709,2.44913626168,5.24456529825,2.66104808529
-2.87157363006,11.3351245765,3.89621283304,6.83516749451
5.55101197698,10.4411128914,1.91786036784,12.6992869037
9.123597584,13.7071012063,4.87950790263,16.043406313
13.366183191,21.2230895211,7.44115543742,21.0575257222
13.1987687981,10.409077836,4.99280297221,16.4316451314
15.9913544051,12.5350661509,4.13445050701,16.8757645406
12.9439400121,12.1010544658,4.4560980418,17.7198839498
9.76652561916,11.9670427806,4.75774557659,12.6040033591
6.3191112262,8.95303109549,3.64939311138,10.3881227683
3.21169683323,5.98901941036,2.77104064617,10.9022421775
7.82428244026,8.74500772523,3.05268818097,14.5763615867
14.7268680473,10.3109960401,2.66433571576,20.5204809959
14.2094536543,10.936984355,2.69598325055,18.8646004052
11.5020392614,12.0229726698,2.34763078534,16.6987198144
12.1846248684,13.0989609847,0.239278320135,16.3828392236
13.0772104754,6.82494929957,-2.07907414507,12.6469586328
11.7997960824,7.14093761445,-2.79742661028,10.661078042
21.4223816895,3.34692592932,-5.51577907549,12.0251974513
19.3649672965,4.13291424418,-5.6141315407,15.4693168605
-22.5585901163,-18.0616097384,0.875715843022,-16.5115697674
-24.3286283133,-22.9954426559,-0.639418461593,-19.2336710309
-22.0286665102,-22.5792755734,-2.67455276621,-18.8657722945
-24.1387047072,-21.1931084909,-2.38968707082,-19.757873558
-24.6587429042,-22.1869414084,1.30517862456,-18.9399748215
-17.4687811012,-20.7007743259,1.48004431995,-15.452076085
-26.5888192982,-17.1446072434,-0.465089984666,-17.3441773485
-16.3788574952,-15.5084401609,-1.54022428928,-14.536278612
-13.7288956922,-15.8522730784,-1.71535859389,-14.3983798755
-17.6889338892,-16.0061059959,-0.950492898509,-16.580481139
-15.1489720861,-12.2199389134,-1.13562720312,-13.7725824025
-13.8990102831,-12.8537718309,-1.69076150774,-10.054683666
-17.6390484801,-10.8776047484,-2.71589581235,-10.0467849295
-14.1390866771,-14.5614376659,-4.62103011697,-13.838886193
-15.5491248741,-11.0252705835,-3.09616442158,-12.9209874565
-13.9491630711,-9.10910350096,-2.3612987262,-12.75308872
-17.2592012681,-10.7629364185,-2.51643303081,-13.1951899835
-21.9392394651,-6.19676933597,-0.261567335425,-14.797291247
-13.7592776621,-8.69060225347,-1.91670164004,-16.2593925105
-17.099315859,-8.77443517098,-4.24183594465,-14.491493774
-14.069354056,-12.2082680885,-5.15697024927,-11.3735950375
-3.54939225301,-4.01210100599,-3.03210455388,-3.74569630105
2.42056955,1.4440660765,-3.2572388585,4.31220243545
7.66053135301,-0.979766841006,-5.58237316311,3.16010117194
10.680493156,-1.31359975851,-7.07750746773,0.65799990844
8.23045495903,0.132567323984,-7.54264177234,2.10589864494
1.68041676205,-1.74126559352,-9.66777607696,1.59379738143
14.1703785651,1.97490148897,-8.03291038157,0.0816961179262
10.0303403681,4.49106857147,-6.73804468619,3.03959485442
13.0203021711,-0.33276434604,-8.0831789908,1.39749359092
10.0102639741,2.98340273646,-4.85831329541,4.42539232741
10.0502257771,5.38956981895,-3.49344760003,7.71329106391
11.2601875801,9.61573690144,-2.04858190464,7.7711898004
5.89014938313,4.37190398394,-3.20371620926,6.0790885369
9.01011118614,7.35807106643,-1.25885051387,8.96698727339
14.0100729892,10.0642381489,0.726015181514,9.84488600989
12.5700347922,9.90040523142,0.210880876899,8.31278474638
11.7199965952,6.79657231391,-0.254253427715,8.70068348288
14.2599583982,3.43273939641,-0.98938773233,6.24858221937
9.6499202012,11.0189064789,1.35547796306,10.6864809559
11.1598820042,5.41507356139,0.930343658441,8.74437969236
14.5598438072,3.12124064389,-0.164790646173,6.23227842886
14.2598056102,5.11740772638,-0.229924950788,7.13017716535
14.8797674133,6.06357480888,0.0749407445974,7.71807590185
11.9697292163,4.68974189137,0.799806439984,7.39597463834
7.28969101928,10.1959089739,1.22467213537,13.2838733748
6.22965282229,15.7620760564,3.22953783075,18.6517721113
7.4096146253,8.70824313885,0.88440352614,14.3496708478
15.2695764283,7.89441022135,0.189269221525,11.3575695843
18.3995382313,12.9505773038,2.29413491691,12.9754683208
18.2995000343,11.4567443863,2.8290006123,14.8833670573
15.3194618373,12.8129114688,3.18386630768,12.7912657938
14.8294236404,9.84907855132,2.67873200307,10.1191645303
14.5693854434,8.82524563382,1.91359769845,7.5970632668
15.8393472464,9.57141271631,1.79846339384,9.5549620033
11.1693090494,6.73757979881,0.553329089223,6.25286073979
12.9692708524,1.0437468813,-2.69180521539,4.00075947629
12.3392326554,10.1099139638,1.00306047999,9.14865821278
14.2791944584,13.5560810463,2.18792617538,11.3765569493
19.2091562614,16.7422481288,4.42279187077,17.1244556858
21.6391180645,16.5484152113,5.86765756615,16.1723544223
15.1790798675,21.1345822938,7.50252326154,17.1402531588
20.8490416705,17.5507493763,6.18738895692,16.6081518953
17.9390034735,18.7369164588,6.18225465231,17.6260506318
18.9589652765,22.8830835413,6.89712034769,20.0239493682
16.3189270795,20.4292506237,6.68198604308,16.0718481047
9.59888888253,15.2354177062,6.54685173846,12.9097468412
5.41885068554,18.5015847887,7.30171743385,12.1176455777
3.97881248856,18.3977518712,7.74658312923,13.6155443142
5.66877429157,17.9639189537,8.02144882462,13.3334430507
11.1187360946,18.0800860362,7.43631452,15.5613417872
10.6886978976,15.6962531187,6.97118021539,12.9492405237
6.2586597006,18.7624202012,8.04604591078,10.1371392602
0.148621503617,12.4985872837,4.80091160616,7.0650379967
-1.62141669337,7.76475436619,2.60577730155,5.3329367332
-5.89145489036,5.09092144869,3.03064299693,2.52083546969
1.27850691265,6.81708853118,4.28550869232,3.50873420619
2.62846871566,8.79325561367,5.5603743877,8.07663294268
1.08843051868,14.2094226962,7.55524008309,12.5345316792
1.16839232169,11.3355897787,5.99010577848,8.97243041568
6.9283541247,14.6717568612,6.99497147386,10.8803291522
5.98831592771,13.8079239437,6.11983716925,12.1782278887
7.24827773073,15.8340910261,6.68470286463,11.6561266252
3.33823953374,9.56025810864,6.36956856002,9.17402536166
5.74820133675,9.18642519113,7.5544342554,9.86192409815
2.24816313976,10.7325922736,7.61929995079,6.86982283464
5.16812494277,11.0787593561,8.46416564617,6.13772157114
10.3980867458,14.1449264386,8.30903134156,10.0156203076
9.3880485488,11.8110935211,8.24389703694,9.86351904413
5.26801035181,8.6672606036,7.70876273233,5.76141778063
5.10797215482,5.8834276861,6.92362842771,2.90931651712
0.807933957833,0.209594768588,3.5084941231,-2.91278474638
-1.14210423916,-0.364238148915,3.35335981849,-5.14488600989
0.327857563858,-4.39807106642,0.738225513872,-3.81698727339
-5.26218063313,-8.99190398393,0.463091209258,-6.7190885369
-5.65221883012,-7.22573690143,1.15795690464,-5.7711898004
-8.23225702711,-14.5195698189,-0.517177399972,-9.53329106391
-8.03229522409,-13.2634027364,0.177688295415,-12.6553923274
-6.45233342108,-10.167235654,0.782553990799,-12.6074935909
-12.8023716181,-16.2010685715,-1.79258031382,-13.9395948544
-9.23240981506,-15.814901489,-3.39771461843,-14.0216961179
-9.67244801204,-14.9587344065,-3.17284892304,-10.0137973814
-3.70248620903,-15.502567324,-3.75798322766,-10.6758986449
-5.47252440602,-16.8864002415,-3.86311753227,-14.2679999084
-4.45256260301,-14.120233159,-3.52825183689,-11.1501011719
-5.4026008,-10.1840660765,-3.5133861415,-8.53220243545
-5.27263899698,-14.307898994,-4.28852044612,-10.264303699
-11.222677194,-10.4117319115,-3.26365475073,-10.8764049625
-15.292715391,-8.32556482901,-2.16878905535,-9.93850622597
-15.2527535879,-10.0393977465,-2.23392335996,-10.7706074895
-9.87279178494,-11.373230664,-3.66905766458,-11.572708753
-12.0728299819,-8.99706358153,-3.39419196919,-7.20481001648
-12.4628681789,-8.09089649903,-4.0893262738,-8.51691127998
-15.1029063759,-11.3247294165,-5.34446057842,-9.48901254349
-14.8429445729,-11.968562334,-6.36959488303,-7.99111380699
-16.3229827699,-13.7923952516,-8.02472918765,-13.5432150705
-12.5930209669,-12.4162281691,-7.41986349226,-14.635316334
-6.87305916385,-10.6900610866,-4.84499779688,-8.74741759751
-12.5630973608,-13.5238940041,-8.04013210149,-10.389518861
-7.29313555783,-9.75772692158,-5.89526640611,-8.77162012452
-7.88317375481,-10.8915598391,-3.93040071072,-8.92372138802
-9.78321195181,-6.65539275659,-3.19553501533,-4.48582265153
-10.0832501488,-5.1292256741,-2.83066931995,-2.62792391503
-1.14328834578,-2.2430585916,-4.04580362456,-2.15002517854
-2.18332654277,-7.19689150911,-5.54093792918,-3.64212644204
-1.13336473976,-7.16072442662,-5.69607223379,-5.64422770555
-3.57340293674,-4.85455734412,-5.96120653841,-5.34632896905
-1.05344113373,-11.9783902616,-10.456340843,-7.20843023256
34.3570530523,34.5547020349,-4.10544694768,36.5592296512
33.9405947858,33.2919483611,-3.60957868866,36.8553859756
33.5441365192,33.3691946873,-1.41371042964,37.6515422999
27.0176782526,33.5864410136,-2.02784217062,34.9076986243
24.011219986,31.2736873398,-1.9119739116,31.2238549487
22.7647617195,33.370933666,1.53389434741,28.8900112731
19.8183034529,30.6481799922,2.27976260643,27.0861675975
12.4318451863,23.5754263184,-0.734369134549,21.2823239219
12.7053869198,20.6426726447,-1.43850087553,20.1984802463
12.6189286532,20.6599189709,-0.412632616512,20.1246365707
11.9124703866,21.0971652971,0.313235642507,18.9007928951
12.76601212,22.5544116233,1.74910390152,21.9669492195
8.58955385347,24.2916579496,3.31497216054,21.4931055439
8.6630955869,23.5889042758,3.53084041956,18.9892618682
10.0566373203,17.636150602,2.88670867858,16.1154181926
11.2501790538,17.2033969282,3.4725769376,15.811574517
5.35372078718,14.0606432544,3.58844519662,12.4977308414
6.41726252061,11.4878895807,2.81431345564,9.97388716581
5.75080425404,5.17513590689,0.520181714654,2.5400434902
0.144345987464,-0.957617766886,0.186049973674,-2.90380018541
-0.272112279108,2.26962855934,1.55191823269,0.792356138983
-7.61857054568,3.53687488556,1.87778649171,3.61851246337
-5.60502881225,0.464121211779,1.09365475073,0.414668787766
-0.141487078825,4.051367538,1.99952300975,-0.159174887844
-5.4979453454,3.61861386423,2.83539126877,-1.29301856345
-6.56440361197,-0.724139809554,1.87125952779,-3.67686223906
-12.9508618785,-3.81689348333,2.7971277868,-3.93070591467
-8.04732014511,-4.25964715711,2.89299604582,-0.924549590279
-9.63377841168,-5.18240083089,2.64886430484,-2.70839326589
-9.53023667826,-5.16515450467,1.83473256386,-6.4722369415
-9.37669494483,-5.17790817844,1.21060082288,-6.84608061711
-6.5931532114,-5.30066185222,3.2764690819,-8.21992429271
-13.199611478,-8.193415526,2.67233734091,-8.90376796832
-11.9460697445,-9.38616919978,1.71820559993,-12.2976116439
-6.10252801112,-10.2889228736,0.294073858952,-11.8214553195
-5.08898627769,-11.7716765473,-1.53005788203,-11.8952989951
-3.27544454426,-10.9344302211,-0.00418962301137,-8.89914267076
-5.84190281084,-12.3071838949,0.271678636008,-9.37298634637
-3.75836107741,-10.3899375687,-0.122453104975,-10.666830022
-0.624819343979,-7.18269124244,0.523415154044,-12.6906736976
-5.62127761055,-15.2554449162,-1.99071658694,-18.2045173732
-6.66773587712,-20.22819859,-2.81484832792,-19.9783610488
-9.92419414369,-16.1509522638,-1.9089800689,-15.7422047244
-8.35065241027,-17.2337059376,-2.13311180988,-17.1860484
0.0328893231599,-17.2164596113,-2.16724355086,-18.6298920756
0.426431056589,-11.7992132851,-1.27137529184,-14.8237357512
-0.690027209981,-10.0619669589,1.17449296717,-12.7575794268
-0.416485476555,-12.5047206327,0.800361226193,-16.3514231025
-5.32294374313,-10.8674743064,1.83622948521,-14.2152667781
1.6305979903,-18.4302279802,-1.33790225577,-15.0991104537
4.21413972373,-17.542981654,-1.77203399675,-14.5529541293
-3.02231854284,-13.5457353278,-0.746165737733,-10.1667978049
-2.72877680942,-14.2484890016,-1.38029747871,-11.6306414805
-2.27523507599,-16.5212426753,-1.7144292197,-14.5544851561
-2.13169334256,-15.7039963491,-1.99856096068,-14.4483288317
-3.84815160913,-12.3367500229,-0.782692701659,-15.0521725073
-10.5246098757,-18.8295036967,-2.94682444264,-18.4360161829
-15.8610681423,-19.0422573704,-2.90095618362,-19.0798598585
-13.5275264088,-16.7050110442,-2.0850879246,-16.4537035342
-18.1739846754,-23.437764718,-3.81921966558,-21.5575472098
-20.890442942,-20.5205183918,-3.12335140657,-17.2113908854
-19.7669012086,-19.6332720656,-2.98748314755,-12.935234561
-18.9133594751,-23.6260257393,-3.16161488853,-19.5890782366
-16.4298177417,-21.0187794131,-2.12574662951,-17.7429219122
-18.1862760083,-22.3915330869,-3.96987837049,-17.8267655878
-12.0727342749,-22.4442867607,-4.86401011147,-18.2206092634
-13.0791925414,-20.6170404344,-2.63814185245,-17.744452939
-15.815650808,-21.7197941082,-2.57227359344,-18.1782966146
-14.7621090746,-15.342547782,-2.07640533442,-14.3221402902
-14.0185673411,-12.0853014558,-1.7505370754,-12.2859839659
-11.8250256077,-16.7680551296,-2.59466881638,-16.7698276415
-9.64148387429,-17.4908088033,-1.76880055736,-17.9436713171
-11.4079421409,-17.3235624771,-2.20293229834,-18.8475149927
-9.09440040743,-13.2663161509,-0.727064039325,-13.7013586683
-5.110858674,-14.0990698247,-1.57119578031,-12.5252023439
-6.01731694058,-11.7218234984,-0.735327521288,-10.9290460195
-8.98377520715,-8.84457717222,-0.54945926227,-8.31288969511
-8.40023347372,-8.647330846,-0.72359100325,-2.86673337072
-9.12669174029,-8.28008451978,0.0922772557678,-3.93057704633
-7.13315000686,-9.11283819356,1.36814551479,-7.14442072194
-7.54960827344,-0.875591867334,3.4740137738,-2.45826439755
-6.60606654001,-5.98834554111,0.889882032823,-4.64210807316
-2.22252480658,-9.81109921489,0.465750291842,-2.35595174877
-6.52898307315,-6.49385288867,1.90161855086,0.450204575625
-9.60544133973,-5.25660656245,2.98748680988,-1.12363909998
-8.7718996063,-9.86936023623,1.6033550689,-6.41748277559
-6.07835787287,-6.85211391,1.29922332792,-3.6613264512
-8.06481613944,-9.92486758378,0.235091586935,-4.31517012681
-14.701274406,-11.4376212576,-0.459040154046,-8.32901380242
-11.8277326726,-9.10037493133,-0.563171895029,-6.31285747803
-12.4541909392,-12.1231286051,0.89269636399,-8.38670115364
-10.5406492057,-11.2358822789,-0.301435376991,-11.3705448292
-7.7871074723,-7.55863595267,2.16443288203,-6.80438850485
-8.83356573887,-4.60138962644,3.22030114105,-5.11823218046
-8.85002400545,-6.55414330022,1.45616940006,-5.30207585607
-5.89648227202,-5.706896974,1.89203765908,-3.77591953168
-3.67294053859,-3.41965064778,0.0779059181014,-0.969763207289
-7.30939880516,-5.32240432156,-0.42622582288,-2.9336068829
-4.32585707173,-2.07515799534,-0.350357563862,-0.0374505585078
-0.0323153383069,2.41208833089,-0.774489304844,3.81870576588
1.29122639512,-0.57066534289,0.281378954175,-0.755137909725
1.56476812855,2.07658098333,-0.182752786806,0.751018414666
1.70830986198,-3.71617269045,-2.78688452779,-0.312825260943
3.10185159541,-4.15892636422,-2.80101626877,-0.556668936551
4.06539332883,1.628319962,-1.88514800975,2.11948738784
6.99893506226,2.80556628822,-2.07927975073,4.89564371223
9.73247679569,1.99281261444,-1.82341149171,3.54180003662
7.52601852912,9.31005894066,0.322456767305,7.59795636101
11.5395602625,12.3373052669,0.358325026324,9.1241126854
8.10310199597,14.5445515931,-0.515806714658,11.6602690098
9.4666437294,16.6617979193,-0.41993845564,13.3464253342
11.0201854628,19.0190442456,1.77592980338,13.8725816586
9.03372719626,17.3062905718,1.9417980624,15.288737983
9.73726892968,13.773536898,-0.662333678583,15.4048943074
15.7508106631,14.8107832242,-2.40646541957,14.9510506318
14.9143523965,17.0180295504,-2.17059716055,14.9372069561
16.54789413,18.6152758767,-1.40472890153,15.7433632805
17.9414358634,18.3825222029,0.52113935749,18.4195196049
12.5149775968,23.1797685291,3.00700761651,19.4556759293
16.5685193303,26.8770148553,3.46287587553,21.6318322537
16.4620610637,21.0542611816,1.89874413455,20.3179885781
16.3856027971,22.0115075078,2.10461239356,19.6641449025
13.4591445305,25.818753834,3.97048065258,21.8603012269
18.202686264,28.6560001602,1.6063489116,19.6764575513
14.6562279974,25.2932464864,-0.687782829379,20.1126138757
18.5097697308,23.2204928127,1.59808542964,22.2887702001
16.5233114642,22.2077391389,2.13395368866,17.1149265244
19.3468531977,29.2849854651,3.54982194768,21.6310828488
-51.0629178779,87.1982194767,10.2824927326,73.6714607558
-52.0592363464,80.59173792,7.86047390015,68.9460083719
-49.7655548148,76.1552563633,7.85845506775,65.4005559879
-49.0218732833,72.3387748066,7.04643623535,59.895103604
-49.1181917517,74.4322932499,7.46441740294,58.92965122
-47.7745102202,69.1858116931,5.51239857054,58.6241988361
-47.9608286887,64.4793301364,6.26037973814,57.0087464521
-44.0771471571,63.2628485797,7.03836090574,50.5132940682
-41.1434656256,65.126367023,7.53634207333,51.6278416842
-40.419784094,66.1198854663,8.76432324093,54.9023893003
-36.6261025625,63.5834039095,6.00230440853,53.0169369163
-31.7224210309,61.8869223528,5.75028557613,51.0414845324
-25.8087394994,56.5804407961,7.08826674372,45.4260321484
-24.9750579679,58.6439592394,8.48624791132,50.3105797645
-31.9813764363,43.8774776827,4.11422907892,39.5751273805
-40.7476949048,39.5309961259,1.72221024652,27.7196749966
-32.4640133732,45.1745145692,5.51019141411,33.4542226126
-23.8503318417,40.1780330125,3.08817258171,28.3887702287
-25.3566503102,32.4115514558,-0.163846250691,23.7133178447
-21.5029687786,32.6250698991,0.594134916906,23.1878654608
-17.2292872471,27.9585883423,0.00211608450354,19.3624130768
-20.8756057155,23.5621067856,1.0900972521,13.2969606929
-23.411924184,17.4056252289,-0.501921580301,6.53150830892
-21.2082426524,15.8491436722,-1.1839404127,5.16605592497
-21.5345611209,14.8126621155,-1.25595924511,7.25060354102
-20.8108795894,11.6261805587,-1.57797807751,4.56515115707
