-5.38252906976,-8.56262718022,-12.3328270349,-12.285650436
4.68007842543,-7.16941036439,-7.66522468985,-10.1726160788
-0.987314079375,-12.1961935486,-8.72762234481,-14.5495817215
-17.7747065842,-12.6929767327,-12.7400199998,-13.7565473643
-23.322099089,-14.4397599169,-13.4924176547,-16.203513007
-17.9094915938,-11.7965431011,-7.7948153097,-13.9104786497
-13.9868840986,-11.4633262852,-6.98721296466,-13.7674442925
-19.8842766034,-14.4801094694,-8.21961061962,-20.5544099352
-10.2516691082,-11.1668926536,-5.77200827458,-17.431375578
-13.299061613,-5.51367583775,-3.59440592955,-13.0183412207
-15.0264541178,-7.50045902192,-3.73680358451,-14.7753068634
-9.52384662264,-6.42724220609,-3.29920123947,-13.4222725062
-13.8012391274,-8.84402539026,-3.93159889443,-14.9792381489
-13.0886316323,-9.85080857443,-3.5639965494,-12.6462037917
-8.53602413705,-7.1675917586,-3.90639420436,-8.4331694344
-2.79341664186,-5.44437494277,-2.71879185932,-6.90013507714
-7.13080914667,-9.40115812694,-0.471189514283,-9.50710071988
-7.15820165148,-8.35794131111,1.10641283075,-11.5140663626
-6.08559415628,-8.48472449528,0.854015175792,-11.4110320054
-5.89298666109,-9.89150767945,-1.34838247917,-9.0079976481
-0.0603791658978,-7.61829086362,-2.36078013413,-7.94496329084
-1.57777167071,-3.65507404779,-0.653177789096,-4.79192893358
-2.99516417551,-4.26185723195,0.234424555942,-4.59889457631
-1.21255668032,-3.16864041612,-0.847973099022,-0.205860219054
-2.52994918513,-4.50542360029,-1.73037075398,-0.802825861794
-1.63734168993,-2.52220678446,0.967231591054,-5.90979150453
0.0752658052625,-1.32898996863,2.16483393609,-3.30675714727
-1.64212669955,-4.4857731528,2.19243628113,-3.56372279001
-1.08951920435,-2.02255633697,2.94003862617,-2.77068843275
-1.54691170916,-0.0793395211404,0.877640971205,-0.36765407549
-0.404304213967,-0.236122705312,1.33524331624,1.64538028177
10.3383032812,-1.46290588948,1.35284566128,2.25841463903
6.72091077642,-1.73968907365,0.850448006318,2.99144899629
7.83351827161,0.523527742178,2.78805035136,3.49448335355
7.76612576681,-4.52325544199,1.29565269639,-0.742482289188
12.588733262,-1.18003862616,1.28325504143,3.80055206807
8.20134075719,0.703178189669,2.06085738647,7.83358642533
10.1839482524,-0.503604994497,2.00845973151,8.13662078259
19.2565557476,1.59961182133,5.32606207654,8.13965513985
9.75916324277,-0.907171362836,5.33366442158,5.94268949711
5.80177073796,1.61604545299,3.00126676662,4.27572385438
-1.84562176684,0.369262268821,5.82886911166,7.70875821164
-2.43301427165,1.88247908465,7.22647145669,3.5317925689
2.43959322355,8.81569590048,8.20407380173,10.5148269262
6.16220071874,8.47891271631,5.93167614677,13.1678612834
13.6248082139,7.47212953214,5.09927849181,13.0208956407
9.19741570912,7.52534634797,5.73688083684,10.3039299979
10.2700232043,11.8985631638,8.40448318188,14.0469643552
8.67263069951,8.84177997963,4.80208552692,15.0199987125
4.4752381947,6.64499679546,1.18968787196,13.4630330697
12.8678456899,12.8182136113,3.59729021699,15.056067427
14.9304531851,13.8514304271,5.26489256203,13.0791017842
10.4030606803,9.64464724296,4.00249490707,10.9621361415
7.14566817548,10.8978640588,5.82009725211,11.5351704988
4.04827567067,12.6210808746,7.21769959714,12.838204856
6.28088316586,8.88429769045,5.26530194218,7.69123921329
7.26349066105,11.2575145063,5.28290428722,9.44427357055
8.06609815625,14.3607313221,4.91050663226,15.9573079278
6.49870565144,15.0539481379,3.26810897729,16.4803422851
8.75131314663,14.1571649538,4.24571132233,13.8033766423
13.4839206418,16.2403817696,5.28331366737,14.0164109996
11.916528137,18.7435985854,5.92091601241,17.4294453568
3.64913563221,15.3868154013,5.48851835744,13.2824797141
4.00174312741,10.5600322171,3.97612070248,10.0455140714
10.4543506226,11.2132490329,4.88372304752,13.7685484286
8.81695811779,11.3664658487,1.39132539256,14.4015827859
10.849565613,9.71968266458,-0.211072262406,10.2346171432
12.2821731082,7.61289948041,1.25653008263,10.1576515004
2.21478060337,4.59611629624,4.44413242767,5.96068585767
-3.24261190144,6.31933311207,3.45173477271,6.55372021493
0.329995593758,6.5825499279,3.74933711774,5.33675457219
4.66260308895,8.15576674373,4.63693946278,6.54978892945
3.94521058414,6.13898355956,2.07454180782,7.72282328672
13.6478180793,3.90220037539,-0.187855847142,7.57585764398
7.25042557453,2.40541719122,-2.93025350211,3.94889200124
4.61303306972,1.28863400705,-3.22265115707,0.421926358498
-3.55435943509,4.62185082288,-0.265048812029,4.63496071576
-8.25175193989,1.75506763871,-0.657446466992,2.98799507302
-1.0591444447,0.578284454543,0.480155878045,3.07102943028
1.19346305049,2.23150127037,-0.402241776916,1.73406378754
-1.35392945431,5.9147180862,-0.484639431879,4.2470981448
6.26867804088,4.28793490203,-2.43703708684,5.78013250206
-2.74871446393,0.481151717868,-1.6194347418,2.64316685932
1.63389303127,3.1943685337,-0.911832396767,3.45620121658
2.45650052646,4.03758534953,-0.764230051727,3.30923557384
-4.57089197835,4.29080216536,-0.536627706691,0.122269931104
-9.72828448315,3.63401898119,1.29097463835,1.00530428836
-2.85567698796,3.70723579702,2.90857698338,3.73833864562
-3.50306949277,7.33045261285,4.71617932842,5.54137300288
3.99953800243,8.53366942868,3.36378167346,7.15440736015
4.04214549762,9.67688624451,1.4913840185,8.59744171741
5.60475299281,10.3401030603,2.30898636353,7.42047607467
5.19736048801,6.72331987617,3.03658870857,4.84351043193
-1.3700320168,6.056536692,0.68419105361,2.90654478919
-2.22742452161,2.74975350783,0.401793398649,1.92957914645
3.53518297358,5.92297032366,0.639395743685,0.892613503711
4.58779046878,13.2061871395,4.51699808872,9.23564786097
4.69039796397,10.0094039553,3.07460043376,8.10868221823
1.85300545916,4.35262077115,-2.7677972212,5.08171657549
5.86561295436,11.285837587,-1.77019487616,10.2547509328
10.5182204496,9.64905440281,1.19740746887,11.12778529
8.28082794475,4.89227121864,-0.80499018609,9.56081964727
2.70343543994,-1.61451196553,-1.43738784105,2.34385400453
-3.24395706487,-3.8212951497,-1.55978549601,-4.37311163821
-0.201349569677,1.87192166613,-2.37218315098,0.0599227190542
2.74125792551,-0.204861518036,-1.51458080594,-1.15704292369
6.67386542071,-0.271644702207,0.6630215391,-1.14400856642
7.6764729159,0.221572113624,-1.10937611586,0.229025790837
-9.0209195889,-2.28521107055,-1.14177377083,0.212060148098
-1.26831209371,-2.28199425472,0.705828574211,0.475094505358
1.49429540148,-0.358777438887,0.353430919249,-1.95187113738
-1.61309710333,-0.225560623057,-0.458966735714,-0.98883678012
-6.22048960813,-2.73234380722,-0.0613643906763,-3.02580242286
-1.84788211294,-2.21912699139,-0.79376204564,-2.9527680656
-2.96527461775,-7.33591017556,-4.0161597006,-5.48973370834
-3.68266712255,-7.73269335973,-4.74855735556,-6.61669935108
-2.46005962736,-9.1694765439,-3.06095501053,-9.22366499382
-0.627452132165,-10.1662597281,-1.92335266549,-7.09063063656
-6.33484463697,-11.9630429122,-1.26575032045,-12.8975962793
-11.7222371418,-15.1998260964,-2.01814797541,-18.674561922
-6.42962964659,-11.4466092806,-5.15054563037,-13.0515275648
-3.8770221514,-14.5033924648,-5.63294328534,-16.7084932075
-10.3044146562,-17.7501756489,-4.9453409403,-20.4754588503
-16.991807161,-21.0569588331,-7.19773859526,-23.702424493
-21.8391996658,-21.1937420173,-8.01013625022,-26.0193901357
-13.1265921706,-24.0005252014,-7.93253390519,-28.9863557785
-18.5139846754,-28.1173083856,-6.91493156015,-29.7133214212
-29.8713771802,-31.0040915698,-8.52732921511,-28.760287064
-21.3074600291,-3.17287790697,7.65052325581,-10.5489026163
-10.4137795562,-0.995059455676,8.38993553722,-10.7191979491
-19.2800990833,-0.407241004388,7.29934781862,-10.8394932819
-21.0564186104,-5.3194225531,7.34876010003,-13.5297886147
-21.8827381375,-7.3316041018,6.74817238143,-11.9300839475
-18.8790576646,-3.85378565051,8.50758466283,-11.3103792804
-14.8053771917,-3.84596719922,8.60699694424,-9.80067461317
-7.75169671877,0.331851252067,7.12640922564,-9.74096994598
-11.8780162459,-6.70033029664,4.20582150705,-14.0412652788
-13.794335773,-8.10251184535,2.66523378845,-12.7115606116
-19.2406553001,-6.86469339406,1.03464606986,-11.8318559444
-14.0869748272,-8.71687494277,0.254058351262,-14.7221512772
-4.96329435428,-6.26905649148,-1.46652936733,-11.5724466101
-7.99961388138,-5.77123804019,-0.947117085929,-8.66274194287
-11.4259334085,-3.3834195889,2.20229519548,-6.81303727569
-0.312252935582,3.1543988624,2.81170747688,0.8666673915
2.44142753732,1.15221731369,-0.198880241716,0.546372058685
-0.674891989784,-3.53996423502,-2.25946796031,-3.64392327413
9.00878848312,0.0878542162682,-2.25005567891,1.08578139306
1.70246895601,-1.96432733244,-2.2106433975,1.72548606024
0.196149428913,-3.60650888115,-4.0412311161,-1.12480927257
3.84982990181,-2.17869042986,-4.73181883469,-1.75510460539
6.53351037471,1.04912802143,-2.51240655329,-0.205399938202
5.04719084761,-1.26305352728,-0.362994271884,2.00430472898
8.67087132051,-0.125235075986,-2.26358199048,2.10400939617
12.8845517934,0.822583375302,-3.46416970907,4.51371406335
15.3082322663,6.71040182659,-1.00475742767,10.6234187305
17.0819127392,12.7482202779,1.52465485374,14.1431233977
6.6055932121,10.3860387292,1.83406713514,13.8428280649
10.479273685,9.74385718047,2.06347941654,16.2025327321
10.6229541579,7.85167563176,1.75289169795,10.8822373993
6.9166346308,7.78949408305,2.96230397935,6.33194206647
10.4303151037,8.66731253434,3.90171626076,7.01164673366
5.46399557659,12.4251309856,3.30112854216,9.73135140084
5.19767604949,11.5129494369,5.38054082357,10.371056068
9.14135652239,17.6907678882,5.60995310497,16.1307607352
7.58503699529,13.6785863395,4.02936538638,16.7704654024
1.46871746819,10.9264047908,2.57877766778,11.4001700696
11.2623979411,6.66422324208,1.96818994918,10.8498747368
11.966078414,2.11204169338,1.68760223059,5.56957940395
-3.00024111311,-1.17013985533,1.90701451199,1.26928407114
-6.03656064022,-0.582321404043,1.3964267934,-0.261011261675
7.87711983268,4.00549704725,-0.614160925197,3.20869340551
7.26080030558,0.283315498538,-1.54474864379,2.3583980727
0.624480778482,0.0211339498273,-1.29533636239,3.77810273988
1.94816125138,3.84895240112,-2.45592408098,3.51780740707
6.30184172428,3.15677085241,-1.56651179958,3.82751207425
9.47552219718,0.524589303706,-1.04709951817,3.16721674144
4.31920267008,-6.167592245,-2.82768723677,-0.753078591377
0.132883142975,-4.28977379372,-2.66827495537,0.176626075809
5.47656361587,-1.91195534242,-1.95886267396,2.69633074299
8.22024408877,1.46586310887,-2.55945039255,3.37603541018
2.74392456167,-1.85631843984,-3.67003811115,3.30574007737
5.00760503457,-4.30849998855,-2.86062582975,0.495444744551
7.37128550747,-3.23068153726,-1.94121354834,0.265149411738
8.91496598037,-4.70286308597,-4.04180126694,-0.165145921077
3.17864645326,-4.06504463468,-3.48238898553,3.01455874611
3.59232692616,-3.11722618339,-2.74297670413,1.06426341329
4.64600739906,-0.609407732099,-1.04356442273,3.87396808048
2.57968787196,-3.33158928081,-1.95415214132,2.27367274766
9.56336834486,-5.49377082951,-1.93473985991,1.84337741485
10.3270488178,-1.53595237822,-1.50532757851,4.65308208204
3.58072929066,3.66186607307,-0.805915297105,6.14278674922
9.65440976356,2.07968452436,1.1334969843,7.42249141641
13.9980902365,1.25750297565,0.602909265701,4.78219608359
4.30177070935,2.98532142694,-1.64767845289,5.80190075078
3.50545118225,-0.186860121768,-4.05826617149,6.03160541797
-0.0608683448481,-3.59904167048,-5.66885389008,-0.0786899148497
1.48281212805,-2.41122321919,-6.80944160868,1.30101475233
12.9164926009,1.4165952321,-2.31002932727,9.76071941952
7.31017307385,-3.60558631661,-4.16061704587,2.53042408671
3.14385354675,-2.36776786531,-8.01120476447,-3.26987124611
-3.94246598036,-0.769949414025,-8.65179248306,-3.01016657892
-3.59878550746,1.79786903727,-4.94238020166,3.03953808826
-9.19510503456,-3.60431251144,-6.48296792025,-2.47075724455
-5.16142456166,-2.60649406015,-5.85355563885,-3.99105257737
0.122255911236,-2.40867560886,-8.59414335744,-1.41134791018
2.44593638413,1.08914284243,-7.45473107604,0.998356757005
-2.01038314297,1.09696129372,-8.05531879463,1.92806142419
-1.44670267007,-0.195220254987,-8.32590651323,2.33776609138
0.886977802831,-0.527401803698,-6.28649423183,-0.772529241438
-5.87934172427,3.99041664759,-3.44708195042,-0.922824574252
-6.63566125137,0.138235098886,-4.13766966902,-2.36311990707
4.55801922153,0.116053550177,-4.73825738761,-3.44341523988
1.25169969443,1.06387200146,-3.81884510621,-1.9337105727
4.21538016733,-1.02830954724,-3.4794328248,0.895994094491
-7.31093935977,-0.000491095950565,-1.4700205434,0.935698761676
-2.76725888688,0.947327355338,-2.25060826199,1.23540342886
-1.33357841398,2.27514580663,-3.90119598059,2.68510809605
-4.87989794108,-2.92703574208,-5.21178369918,-1.55518723677
-2.07621746818,-5.75921729079,-6.08237141778,-2.23548256958
-4.12253699528,-3.5613988395,-4.90295913637,0.0342220976036
-3.19885652238,-4.20358038821,-4.91354685497,-4.43607323521
2.06482395052,-7.39576193692,-4.49413457357,-5.74636856802
-5.35149557658,-7.74794348563,-3.43472229216,-2.24666390084
-6.41781510368,-7.79012503433,-3.79531001076,-2.14695923365
0.495865369216,-7.29230658304,-2.85589772935,-2.88725456647
2.55954584211,-3.68448813175,-1.44648544795,-0.907549899282
3.73322631501,-2.74666968046,-0.187073166544,4.2621547679
-0.883093212095,-5.37885122917,-2.28766088514,-0.508140564913
0.460587260804,-2.75103277788,0.461751396266,0.181564102273
-2.16573226629,-2.41321432659,1.79116367767,0.881268769459
-0.122051793398,0.0746041247003,1.81057595908,1.52097343665
1.6916286795,4.01242257599,3.01998824048,0.870678103829
2.5453091524,5.45024102728,3.28940052188,2.56038277102
6.3589896253,4.40805947857,0.408812803289,4.6700874382
4.8226700982,-0.234122070135,-0.391774915308,-4.19020789461
9.2963505711,2.63369638116,0.997637366097,-1.02050322743
6.670031044,0.821514832449,1.0670496475,-1.43079856024
0.823711516896,-4.55066671626,0.416461928906,-6.52109389306
1.65739198979,-2.60284826497,-0.134125789687,-8.07138922587
2.58107246269,0.334970186323,0.375286491715,-3.83168455869
-0.635247064409,-1.91721136239,-0.26530122688,-4.9319798915
6.41843340849,-3.5493929111,0.874111054525,-4.72227522431
14.7421138814,-0.701574459807,5.55352333593,1.07742944287
6.07579435429,0.866243991484,7.36293561734,1.60713411006
-4.15052517281,-0.555937557227,4.23234789874,-7.63316122276
-18.9468446999,-2.06811910593,3.23176018014,-8.62345655557
-11.043164227,1.95969934536,4.82117246155,0.286248111614
-8.48948375411,2.45751779665,6.45058474295,-0.0440472211994
-14.9858032812,0.835336247939,5.02999702436,-3.84434255401
-11.1121228083,-0.746845300771,4.31940930576,-7.27463788683
-9.75844233542,4.13097315052,6.48882158717,-1.65493321964
-12.6747618625,2.76879160181,11.9882338686,-2.02522855246
-12.1810813896,3.9366100531,11.60764615,-2.47552388527
-7.56740091673,4.95442850439,9.79705843138,-3.44581921809
-9.90372044383,4.35224695568,11.2064707128,-2.1361145509
-7.00003997093,6.95006540697,12.1058829942,0.243590116284
-4.04342178217,-5.63775049503,2.15733267326,0.00846732672653
6.86124734475,-4.60096765675,0.962295649559,0.548437683761
-5.47408352834,-5.60418481847,1.33725862586,-0.341591959203
2.66058559857,0.532598019818,3.02222160215,4.11837839783
-1.99474527452,-3.0806191419,3.43718457845,-0.281651245132
2.66992385239,-2.53383630361,4.14214755475,1.93831911191
3.47459297931,3.08294653467,4.32711053105,10.2282894689
4.94926210622,3.04972937295,2.91207350734,10.658259826
11.5639312331,2.06651221124,1.28703648364,11.578230183
12.96860036,5.29329504952,0.40199945994,10.88820054
9.18326948696,-0.509922112196,1.95696243624,1.59817089708
2.87793861387,-5.39313927391,0.871925412535,-2.33185874588
1.62260774078,-5.85635643563,-1.51311161117,-4.18188838884
1.23727686769,-3.20957359735,-1.62814863487,-3.96191803181
3.56194599461,-2.33279075906,0.256814341426,-3.75194767477
4.76661512152,-2.18600792078,-0.448222682275,-2.87197731774
-0.128715751565,-2.86922508249,-0.483259705976,-1.6420069607
-10.2340466247,-3.73244224421,2.66170327032,-6.80203660367
-8.29937749774,-3.86565940593,1.63666624662,-9.61206624663
-0.674708370829,-6.35887656764,-1.60837077708,-10.3920958896
-1.84003924391,-6.66209372936,-1.64340780079,-9.94212553256
-4.745370117,-2.56531089107,-1.58844482449,-2.56215517552
9.32929900991,1.87147194721,-0.823481848191,3.22781518151
8.52396813682,5.02825478549,-0.118518871894,2.71778553855
2.88863726374,4.29503762377,-1.4435558956,1.47775589558
5.81330639065,9.36182046206,0.891407080702,2.66772625262
1.28797551756,9.38860330034,2.626370057,4.11769660966
3.41264464447,7.56538613863,2.9213330333,3.20766696669
1.62731377138,6.14216897691,2.6162960096,3.83763732373
-3.0780171017,5.05895181519,0.621258985893,1.08760768076
0.0566520252105,1.75573465347,0.246221962188,-2.6824219622
0.141321152125,-2.37748250824,-2.41881506151,-3.88245160517
-4.73400972096,-1.23069966996,0.186147914786,-3.81248124813
-5.16934059405,0.996083168331,1.98111089108,-3.4025108911
