-4.43621002906,-2.28624273255,8.61190770349,0.357583575576
-3.53340184947,0.88284179867,10.2170080743,1.50161154092
-9.25059366988,-2.95807367011,8.51210844511,-5.40436049373
-2.93778549029,-2.28898913889,6.87720881592,-1.33033252839
-7.89497731069,1.91009539233,6.71230918673,-2.26630456304
1.0578308689,1.18917992355,6.50740955754,-1.0822765977
0.300639048484,1.76826445477,4.80250992835,3.66175136765
7.30344722808,4.677348986,3.36761029916,8.13577933299
6.70625540767,8.04643351722,3.27271066997,10.9998072983
-0.0809364127381,10.5755180484,4.22781104079,12.3738352637
9.72187176685,5.54460257966,5.7229114116,12.397863229
8.94467994645,3.08368711088,3.52801178241,9.87189119437
4.58748812604,5.4027716421,1.48311215322,8.87591915972
-7.55970369437,9.38185617332,4.20821252403,8.29994712507
-12.0668955148,14.1809407045,3.95331289484,8.90397509041
1.77591266481,14.5900252358,2.22841326565,12.5280030558
2.0487208444,12.309109767,2.18351363647,9.5420310211
-5.31847097601,8.81819429821,1.34861400728,6.21605898645
1.48433720358,10.5772788294,0.383714378087,6.69008695179
3.18714538318,4.38636336065,-0.811185251101,1.39411491714
1.37995356277,1.68544789187,0.193915119709,-0.681857117519
-6.74723825764,1.56453242309,0.429015490521,-2.91782915217
2.06556992195,0.743616954318,-2.54588413867,-2.75380118683
2.11837810154,-3.48729851446,-5.10078376786,-8.84977322148
7.45118628113,-7.26821398324,-5.88568339704,-8.86574525614
4.90399446072,-4.57912945202,-5.36058302623,-6.58171729079
3.68680264032,-5.1900449208,-7.15548265542,-4.61768932545
-2.93038918009,-3.42096038958,-6.91038228461,-4.7436613601
3.2724189995,1.69812414164,-4.6552819138,-1.27963339476
6.22522717909,3.03720867286,-1.15018154299,1.70439457059
-4.49196464132,3.56629320409,0.874918827823,3.42842253593
-1.95915646173,6.35537773531,2.30001919863,3.81245050128
-0.606348282134,9.73446226653,3.85511956945,5.86647846662
-1.61354010255,12.1435467977,5.55021994026,10.300506432
-3.77073192295,7.38263132897,3.26532031107,3.53453439731
-1.52792374336,4.77171586019,2.37042068188,1.38856236266
-7.46511556377,0.810800391413,1.73552105269,0.342590328004
-8.78230738418,-0.710115077363,1.1906214235,-0.363381706651
-5.23949920458,-0.871030546143,0.515721794314,-1.90935374131
-2.846691025,1.89805398508,-1.11917783488,3.08467422404
-9.0238828454,-2.6128614837,-2.10407746406,-1.72129781061
-4.82107466581,-3.11377695248,-4.30897709325,-2.74726984527
-8.98826648622,-9.79469242126,-6.88387672244,-7.90324187992
-15.6454583066,-9.77560789003,-6.12877635163,-11.8592139146
-12.862650127,-10.5965233588,-6.66367598082,-12.9051859492
-11.3398419474,-10.6074388276,-6.64857561001,-11.9311579839
0.80296623215,-10.1783542964,-7.3234752392,-12.3371300185
-1.75422558826,-8.00926976515,-7.41837486838,-8.3331020532
-3.74141740867,-8.91018523393,-7.94327449757,-2.97907408785
3.26139077092,-6.85110070271,-7.60817412676,-0.565046122507
-2.22580104949,-6.05201617149,-2.81307375595,-1.27101815716
-4.1429928699,-4.35293164027,-1.33797338514,-0.626990191817
8.3798153097,0.516152890956,-1.55287301433,5.70703777353
7.20262348929,-8.38476257782,-5.79777264352,-5.93893426113
17.9354316689,-7.2156780466,-4.1526722727,-1.75490629578
20.0882398485,-5.29659351538,-1.1875719019,5.15912166956
13.6610480281,-8.96750898416,-3.18247153108,-0.266850365089
8.50385620765,-2.41842445294,-4.09737116027,-1.96282239974
9.98666438724,-1.29933992172,-2.90227078946,0.251205565601
0.199472566837,-3.2502553905,-1.51717041865,-3.22476646905
6.56228074643,-3.25117085928,-0.992070047838,-2.02073850371
0.445088926019,-4.03208632805,-1.57696967703,-4.69671053836
-3.19210289439,-3.25300179683,-2.21186930622,-4.00268257302
7.0507052852,1.05608273439,-3.2167689354,-1.82865460767
5.64351346479,2.60516726561,-2.15166856459,2.17537335767
7.97632164439,1.05425179683,1.62343180622,3.18940132302
-1.40087017602,2.62333632806,0.85853217703,1.94342928836
11.6119380036,5.37242085928,1.41363254784,6.25745725371
12.4047461832,6.5115053905,2.15873291865,5.61148521905
12.0275543628,8.40058992172,2.85383328946,5.5055131844
9.17036254234,3.59967445294,3.10893366027,5.08954114974
8.93317072194,4.10875898416,2.72403403109,5.82356911509
10.0159789015,3.07784351538,0.799134401897,1.78759708043
10.1587870811,-1.6830719534,-2.04576522729,-1.73837495422
5.29159526071,-0.543987422174,-0.0606648564808,-1.80434698888
6.3244034403,-5.99490289095,-0.51556448567,-4.21031902353
4.61721161989,-6.08581835973,-1.64046411486,-3.94629105819
2.92001979949,-5.32673382851,-2.49536374405,-4.94226309284
7.28282797908,-10.0476492973,-4.62026337324,-7.7582351275
-1.93436384133,-14.2985647661,-7.41516300242,-10.9942071622
-1.80155566174,-21.1194802348,-8.63006263161,-12.0601791968
-1.83874748215,-23.7803957036,-8.4549622608,-16.3761512315
-4.84593930256,-20.9813111724,-6.42986188999,-19.1821232661
-4.36313112297,-13.4322266412,-3.82476151918,-13.6380953008
-5.75032294338,-13.70314211,-3.86966114837,-9.87406733542
-2.40751476378,-15.2040575787,-4.47456077756,-10.2800393701
-3.94470658419,-10.3249730475,-4.10946040674,-10.4960114047
-7.0418984046,-7.6258885163,-4.64436003593,-7.52198343939
-7.99909022501,-6.17680398508,-3.59925966512,-6.14795547404
-6.71628204542,-1.92771945386,-0.47415929431,-4.1339275087
-3.47347386582,-0.118634922634,0.990941076499,-0.439899543355
-0.200665686232,-2.03955039142,0.136041447311,0.654128421993
1.30214249336,4.20953413981,1.96114181812,4.23815638734
-5.81504932705,-0.481381328969,0.546242188933,-2.86781564732
-11.9622411475,-3.01229679775,1.04134255975,-3.82378768197
-12.7794329679,-2.78321226653,1.67644293056,-4.44975971663
-8.79662478828,-0.844127735309,1.40154330137,-4.50573175128
-11.4438166087,0.534956795913,2.56664367218,-5.02170378594
-12.8210084291,-0.735958672863,1.35174404299,-3.98767582059
-10.0882002495,1.16312585836,1.0068444138,-4.29364785525
-12.7453920699,2.10221038958,2.45194478461,-6.7296198899
-9.38258389032,-1.6087050792,2.60704515542,-7.12559192456
-7.31977571073,-1.72962054798,2.87214552623,-5.22156395921
-11.8269675311,-0.210536016759,2.48724589705,-2.33753599387
-6.97415935154,7.38854851446,4.09234626786,4.48649197148
-4.10135117195,6.58763304568,5.82744663867,3.77051993682
1.62145700764,4.77671757691,5.21254700948,3.73454790217
-5.76573481277,3.42580210813,3.93764738029,1.94857586751
0.277073366822,4.18488663935,1.6927477511,3.67260383286
4.90988154641,8.83397117057,3.32784812191,5.48663179821
4.85268972601,5.73305570179,2.44294849273,4.89065976355
2.7754979056,5.90214023301,1.83804886354,5.0546877289
3.92830608519,1.79122476423,0.333149234348,1.96871569424
1.29111426478,2.79030929545,-0.881750394841,3.04274365959
5.63392244437,6.85939382667,2.17334997597,8.99677162493
8.72673062396,4.1584783579,1.56845034678,5.29079959028
-2.66046119645,3.21756288912,0.853550717593,1.78482755562
4.07234698315,9.87664742034,3.7286510884,7.93885552097
4.47515516274,3.72573195156,0.343751459215,3.38288348631
2.60796334233,6.07481648278,-1.25114816997,4.96691145166
0.230771521918,9.293901014,1.69395220084,8.330939417
3.38357970151,7.05298554523,3.23905257165,6.72496738235
-1.5536121189,8.77207007645,3.18415294246,7.81899534769
1.73919606069,10.6711546077,4.22925331327,11.783023313
4.27200424029,8.17023913889,4.78435368408,10.6470512784
8.79481241988,8.74932367011,4.23945405489,9.60107924373
5.24762059947,2.59840820133,2.47455442571,8.21510720907
1.73042877906,2.81749273255,1.56965479652,8.28913517442
8.15377906978,6.29541787791,-0.0497420058164,7.73614098837
6.58397792301,2.23704023417,-1.93395251557,3.81662252792
5.20417677624,2.15866259042,-1.68816302532,5.21710406747
8.52437562947,7.54028494668,-0.822373535069,4.79758560703
4.43457448271,3.10190730293,-1.35658404482,1.85806714658
0.854773335937,5.93352965918,-1.34079455457,4.00854868613
4.34497218917,6.32515201544,0.184994935678,7.01903022569
7.2651710424,1.74677437169,0.180784425927,4.73951176524
8.76536989563,8.03839672794,0.356573916177,8.41999330479
10.6355687489,13.5100190842,0.912363406425,12.9304748443
7.48576760209,11.1016414405,1.10815289667,9.0809563839
6.78596645533,13.7832637967,2.09394238692,10.4914379235
11.1061653086,19.194886153,2.61973187717,16.921919463
6.95636416179,17.4165085092,3.20552136742,15.8024010026
10.096563015,16.9681308655,4.70131085767,14.0028825421
1.16676186825,18.0897532217,4.55710034792,13.6233640817
5.44696072149,16.381375578,4.24288983817,14.6938456212
7.08715957472,15.3429979342,5.29867932842,13.5743271608
5.68735842795,17.0746202905,4.21446881867,11.1348087003
11.3975572812,20.3962426467,6.45025830892,14.0552902399
2.72775613441,21.837865003,6.20604779917,15.0557717794
3.36795498764,13.1794873592,0.791837289415,11.416253319
1.00815384088,4.41110971549,-2.58237322034,5.93673485854
9.77835269411,3.99273207174,-2.14658373009,8.22721639809
2.78855154734,1.86435442799,-2.88079423984,4.46769793764
-2.92124959943,1.33597678425,-5.32500474959,-1.1618205228
2.37894925381,1.3475991405,-0.519215259339,-0.47133898325
0.849148107038,0.259221496759,1.49657423091,2.8291425563
-1.67065303973,2.11084385301,-0.0576362788433,3.02962409586
-4.1804541865,3.64246620926,-0.391846788594,3.89010563541
-1.34025533327,2.01408856552,-0.616057298344,5.81058717496
6.42994351996,4.82571092177,1.83973219191,8.13106871452
0.0201423731924,-1.51266672197,-1.53447831785,3.59155025407
-4.52965877357,-4.76104436572,-3.7786888276,-2.86796820638
-4.96945992034,-3.45942200947,-1.27289933735,1.26251333318
0.430738932893,-1.40779965321,-1.7871098471,0.722994872731
1.53093778612,-4.70617729696,-2.37132035685,-3.59652358772
6.26113663935,-4.47455494071,0.8844691334,-3.66604204816
0.101335492585,-1.91293258446,1.89025862365,-2.57556050861
-5.72846565418,-4.9613102282,-0.173951886101,-1.61507896906
-2.56826680095,-5.59968787195,-0.238162395854,-1.1245974295
-2.97806794772,-5.5480655157,-1.6523729056,-4.88411588995
0.00213090551551,-8.52644315944,-2.76658341535,-2.5236343504
-4.32767024125,-8.98482080319,-1.94079392511,-3.86315281084
-2.70747138802,-6.22319844693,-1.25500443486,-2.59267127129
-4.39727253479,-12.0215760907,-3.55921494461,-10.4021897317
-0.76707368156,-10.1299537344,-3.60342545436,-10.7217081922
-3.39687482833,-13.0283313782,-4.52763596411,-10.1412266526
-1.9366759751,-13.3967090219,-5.17184647386,-10.7907451131
-7.53647712187,-15.4850866657,-6.85605698361,-13.3402635735
-6.18627826863,-12.8834643094,-5.58026749336,-12.209782034
-1.9260794154,-9.00184195316,-3.95447800311,-6.55930049442
-10.8158805622,-15.4302195969,-4.84868851286,-12.0088189549
-0.615681708936,-14.3685972407,-6.33289902261,-10.7183374153
4.1345171443,-12.7669748844,-7.66710953237,-10.3178558758
-5.17528400247,-12.7753525281,-5.91132004212,-9.7673743362
-2.10508514924,-10.1337301719,-2.13553055187,-7.73689279665
-4.26488629601,-11.8121078156,-0.209741061619,-8.0564112571
-9.04468744278,-11.1104854594,-0.48395157137,-7.34592971755
-4.49448858955,-6.51886310313,0.56183791888,-3.11544817799
-1.60428973631,-7.01724074688,-0.202372590873,-4.73496663844
0.82590911692,-4.90561839063,1.00341689938,-4.46448509889
-3.95389202985,-7.69399603437,2.60920638963,-7.53400355933
-13.1336931766,-10.3823736781,2.72499587987,-9.88352201978
-10.0834943234,-9.12075132187,0.910785370126,-8.90304048023
-2.00329547016,-8.25912896562,2.29657486037,-7.72255894067
-13.3230966169,-6.52750660936,4.43236435062,-5.42207740112
-8.40289776369,-6.86588425311,4.16815384087,-5.32159586157
-5.44269891046,-6.34426189685,5.92394333112,-4.89111432201
-11.3325000572,-11.7026395406,4.08973282137,-10.5306327825
-6.272301204,-10.9910171843,3.71552231162,-11.7201512429
-10.6021023508,-10.9793948281,2.14131180187,-13.6496697034
-11.8619034975,-9.93777247184,2.16710129212,-14.2491881638
-8.5017046443,-12.1861501156,0.132890782366,-13.8087066242
-10.1515057911,-12.1745277593,1.46868027262,-14.2382250847
-8.59130693784,-8.21290540308,2.26446976286,-12.3377435451
-11.7611080846,-9.85128304682,0.520259253113,-13.6672620056
-10.8809092314,-15.6996606906,-0.263951256637,-18.066780466
-5.17071037814,-12.9380383343,0.741838233611,-14.6762989265
-3.49051152491,-10.9364159781,-1.11237227614,-12.8658173869
-13.0703126717,-9.13479362182,-1.98658278589,-12.5353358474
-6.46011381844,-6.30317126556,2.85920670436,-11.6748543078
-1.64991496522,-4.73154890931,3.41499619461,-10.1543727683
-5.88971611198,-5.85992655305,1.09078568486,-11.0738912287
-2.05951725875,-4.6583041968,1.57657517511,-9.24340968916
-13.6193184055,-7.84668184055,0.182364665354,-13.5429281496
-5.22911955229,-11.2750594843,-1.0618458444,-16.1624466101
-9.17892069906,-12.743437128,-0.176056354147,-18.3319650705
-13.6587218458,-11.8618147718,-1.6302668639,-18.5814835309
-1.4985229926,-12.7601924155,-4.06447737365,-17.8010019914
-10.9183241394,-8.14857005928,-2.6586878834,-14.5205204518
-2.43812528613,-0.826947703026,-0.742898393151,-4.55003891229
-5.26792643289,-3.78532534677,-0.587108902902,-3.94955737273
-6.79772757967,-3.03370299052,1.75868058735,-3.79907583318
-8.35752872643,-2.87208063426,3.3644700776,-5.72859429363
-8.0373298732,-1.25045827801,3.47025956784,-4.96811275407
-2.39713101997,-1.25883592176,2.01604905809,-3.45763121452
-5.35693216674,-1.5872135655,1.59183854834,-2.38714967497
-1.65673331351,-2.32559120925,1.67762803859,-4.82666813541
-4.33653446027,-3.883968853,1.29341752884,-5.16618659586
-7.29633560704,0.377653503256,-0.270792980909,-0.805705056307
0.78386324619,2.81927585951,-0.32500349066,2.04477648324
-1.82593790058,2.07089821576,-0.87921400041,0.145258022798
-6.13573904735,1.15252057202,-0.263424510162,0.725739562351
7.08445980588,0.914142928268,-0.997635019912,2.3062211019
3.34465865912,7.07576528452,-0.281845529662,4.91670264146
-3.08514248765,7.19738764078,2.46394396059,4.97718418101
0.765056365577,8.00900999703,3.14973345083,8.64766572057
4.64525521881,8.85063235328,2.83552294108,12.1481472601
7.08545407205,10.7622547095,2.43131243133,11.7686287997
10.5856529253,9.99387706579,0.107101921581,8.42911033923
6.63585177851,10.225499422,2.22289141183,9.09959187878
9.19605063174,8.5371217783,2.44868090208,10.8800734183
13.766249485,10.1587441346,1.43447039233,10.8805549579
5.3664483382,8.4903664908,-1.75974011742,8.03103649744
9.10664719143,10.8519888471,-3.44395062717,9.22151803699
13.4368460447,10.4836112033,-1.74816113692,12.7719995765
13.6470448979,8.70523355957,0.197628353324,14.3024811161
9.00724375113,13.0568559158,0.283417843575,14.0829626557
20.6174426044,15.8884782721,1.32920733382,20.9834441952
21.5876414576,15.1101006283,0.614996824072,25.2039257348
5.45784031082,11.1217229846,-4.45921368568,16.1044072743
10.3780391641,13.2833453408,-1.78342419543,19.0948888139
2.42823801729,13.6249676971,-0.10763470518,16.1853703534
3.04843687052,13.6865900533,-1.47184521493,13.495851893
11.5986357238,17.2982124096,-1.85605572468,16.4863334325
15.038834577,15.3398347658,-1.05026623443,18.3668149721
18.1390334302,13.2714571221,-2.41447674418,16.5272965116
13.5731031977,13.248880814,2.93428052326,13.6364135174
10.3823998009,12.343336185,3.14682630242,11.6538198991
8.94169640405,13.247791556,3.72937208158,12.4612262807
8.56099300724,14.0922469271,3.07191786074,10.1386326623
8.17028961043,8.15670229812,0.0744636398995,8.9560390439
1.50958621361,6.27115766916,-0.452990580938,9.30344542552
4.86888281679,9.3256130402,0.549555198224,6.84085180713
15.09817942,9.47006841124,0.862100977385,6.33825818875
4.27747602317,1.86452378228,-0.685353243454,3.74566457036
6.74677262635,3.20897915332,2.74719253571,4.98307095198
-0.223930770459,2.75343452436,2.22973831487,3.55047733359
1.90536583273,2.5678898954,1.26228409403,2.39788371521
2.11466243591,5.17234526644,1.54482987319,3.58529009682
-0.626040960902,2.36680063748,2.60737565235,-0.257303521563
-5.73674435772,-10.3387439915,0.389921431513,-6.01989713995
-7.07744775453,-9.02428862044,-0.237532789326,-4.00249075833
-7.55815115134,-7.8998332494,-1.69498701016,-4.38508437672
-6.45885454816,-8.28537787836,-1.212441231,-5.8776779951
-4.05955794497,-7.29092250732,-0.549895451841,-4.80027161349
-7.65026134178,-8.37646713628,-2.04734967268,-5.42286523187
-6.9509647386,-8.00201176524,-0.624803893517,-8.20545885026
2.01833186459,-7.6575563942,0.417741885643,-9.14805246864
-8.28237153223,-5.67310102316,-1.5297123352,-6.46064608703
-8.29307492904,-5.54864565212,-2.04716655603,-6.52323970541
-8.53377832585,-6.38419028108,-0.0646207768714,-6.5858333238
-10.8944817227,-3.61973491004,-2.04207499771,-6.59842694218
-4.29518511948,-4.845279539,-0.699529218551,-5.06102056057
-7.82588851629,-2.44082416796,1.12301656061,-5.72361417895
-7.36659191311,-4.00636879692,0.645562339774,-5.74620779734
-6.80729530993,-0.0919134258802,1.71810811893,-1.19880141572
-6.23799870674,0.972541945161,1.20065389809,-1.55139503411
-2.31870210355,1.3669973162,1.63319967726,-2.42398865249
0.640594499637,1.16145268724,0.695745456418,-2.05658227088
-7.02010889718,3.91590805828,1.19829123558,-0.249175889261
0.509187706008,0.0403634293179,0.55083701474,-2.90176950765
1.29848430919,-2.60518119964,-1.2466172061,-5.98436312603
5.70778091238,-0.980725828602,-1.14407142694,-3.92695674442
-2.10292248444,-2.04627045756,-0.611525647775,-5.0795503628
-5.24362588124,-5.07181508652,-0.908979868613,-7.38214398119
0.94567072194,-1.27735971548,2.30356591055,-3.12473759957
0.324967325127,-0.412904344441,2.77611168971,0.00266878204457
-0.695736071688,3.0615510266,1.80865746887,1.68007516366
5.5935605315,5.35600639764,0.391203248033,4.30748154527
-1.68714286532,2.80046176868,0.783749027194,1.46488792689
-0.847846262131,0.754917139722,0.666294806355,3.0622943085
2.30145034106,2.10937251076,1.86884058552,3.14970069012
-1.08925305576,2.4538278818,0.951386364677,-0.552892928265
-3.97995645257,1.50828325284,-1.24606785616,0.0345134533509
0.629340150615,3.37273862388,-0.423522077001,4.64191983496
-0.101363246202,3.51719399492,-0.720976297838,6.69932621658
0.727933356986,2.37164936596,-2.53843051868,6.76673259819
0.157229960172,0.796104736997,-3.57588473952,1.16413897981
1.14652656336,2.73056010804,-4.47333896036,2.04154536143
3.31582316655,-0.614984520922,-3.49079318119,1.83895174304
-1.59488023027,-4.96052914988,-1.90824740203,-2.58364187534
-1.98558362708,-2.50607377884,-0.71570162287,0.193764506272
0.613712976105,-1.2416184078,-3.67315584371,1.20117088789
4.61300957929,-2.94716303676,-4.28061006455,-1.6914227305
10.3923061825,-2.98270766572,-1.75806428539,2.41598365112
-1.22839721434,-3.41825229468,-2.85551850623,2.20339003273
-4.30910061115,-1.77379692364,-0.162972727063,2.58079641435
4.73019599203,-1.1593415526,2.4995730521,3.54820279596
4.71949259522,-0.0948861815596,0.0521188312596,0.755609177577
6.14878919841,-1.76043081052,-1.31533538958,-0.846984440808
11.6780858016,-3.30597543948,-2.15278961042,0.660421940807
12.6273824048,-4.81152006844,-2.45024383126,-1.17217167758
-3.99332099203,-4.1070646974,-1.7776980521,-3.22476529596
3.07597561115,-3.65260932636,-0.645152272935,-1.58735891435
6.09527221434,-1.55815395532,0.0673935062277,-0.0899525327313
1.27456881752,-4.52369858428,0.769939285388,-3.23254615112
-2.76613457929,-4.97924321324,0.902485064549,-3.9451397695
-5.9068379761,-1.7947878422,1.58503084371,-2.62773338789
5.22245862708,0.819667528838,-0.232423377127,1.15967299373
0.631755230272,-6.41587710012,-0.319877597965,-2.90292062466
-4.94894816654,-9.46142172908,0.0926681811943,-8.42551424304
-1.96965156336,-9.49696635804,-1.33478603964,-9.06810786143
-3.64035496017,-5.612510987,-2.15224026048,-5.67070147981
-0.311058356987,-1.57805561596,-0.38969448132,-3.8532950982
1.9582382462,-0.563600244917,0.852851297841,-3.73588871658
-4.70246515061,-5.43914487388,-1.424602923,-5.56848233497
-2.25316854743,-1.00468950284,-0.142057143836,-3.06107595335
-9.11387194424,-3.3202341318,0.460488635325,-4.57366957174
-3.38457534106,-0.0857787607601,-0.0569655855124,-4.34626319012
-1.54527873787,-0.99132338972,-1.00441980635,-4.6788568085
-10.1159821347,-4.63686801868,-0.85187402719,-6.06145042689
1.3933144685,-2.75241264764,-1.52932824803,-5.87404404527
-0.567388928313,0.722042723399,-4.10678246887,-1.80663766366
-0.868092325123,3.79649809444,-0.854236689707,3.56076871796
4.25120427806,6.11095346548,0.198309089454,7.18817509957
0.0405008812486,7.13540883652,1.22085486862,6.07558148119
3.83979748443,7.54986420756,1.72340064778,10.1929878628
10.4190940876,6.3343195786,0.135946426939,12.0003942444
-1.4216093092,2.00877494964,-0.9715077939,6.41780062603
1.08768729399,-0.926769679321,-1.39896201474,1.19520700765
1.58698389718,-1.74231430828,-0.556416235577,-3.80738661074
2.19628050036,-1.97785893724,0.486129543584,-0.359980229123
6.51557710355,-0.983403566199,-1.08132467726,-0.112573847509
-1.11512629327,1.49105180484,-2.06877889809,-2.63516746589
2.41417030992,2.04550717588,-2.99623311893,-1.22776108428
-3.71653308689,-4.32003745308,-2.66368733977,-4.95035470266
-0.0972364837071,0.184417917961,-2.26114156061,-1.17294832105
3.00206011948,1.048873289,-1.79859578145,-1.27554193943
-4.68864327733,1.91332866004,-1.00605000229,1.00186444218
-9.83934667415,5.96778403108,1.56649577687,-0.0207291762035
-7.85005007096,-0.567760597882,1.55904155603,-2.78332279459
-4.22075346778,1.92669477316,1.4815873352,1.84408358703
-4.52145686459,0.751150144199,0.744133114358,1.40148996864
0.977839738596,1.84560551524,-0.293321106481,0.288896350257
-4.56286365822,2.95006088628,0.979224672683,0.806302731873
-3.76356705503,1.39451625732,0.571770451843,0.183709113488
-4.29427045184,3.01897162836,1.684316231,3.7211154951
-12.3149738487,-0.876573000602,2.27686201017,-2.42147812328
-7.70567724547,2.08788237044,1.19940778933,0.525928258332
-2.75638064229,0.152337741478,-0.238046431512,0.513334639947
3.9329159609,0.116793112516,0.11449934765,2.64074102156
3.64221256409,2.10124848356,0.44704512681,3.77814740318
3.61150916728,-1.8442961454,0.0995909059729,2.48555378479
10.3608057705,4.25015922564,1.77213668513,9.46296016641
1.07010237365,3.52461459668,2.41468246429,5.05036654802
3.53939897683,1.05906996772,2.02722824346,1.27777292964
10.73869558,3.95352533876,2.28977402262,3.33517931125
8.0879921832,5.3479807098,4.34231980178,2.17258569287
6.68728878639,2.99243608084,2.50486558094,2.01999207449
5.55658538958,-0.773108548121,0.887411360103,1.7173984561
3.83588199276,-0.308653177079,1.32995713926,1.29480483771
4.55517859595,-0.584197806042,1.05250291842,1.92221121933
-5.26552480087,-0.999742435,-0.494951302415,-1.94038239906
-5.28622819768,4.35471293604,1.91759447675,-2.65297601744
2.78752543605,-2.75398255813,-0.546845930234,-4.49047965117
0.186657663435,-2.78667820682,-0.199145846687,-4.25872505036
0.655789890818,-5.64937385551,-1.63144576314,-3.21697044956
-2.75507788179,-1.1820695042,-0.863745679595,1.10478415125
-2.42594565441,-1.8147651529,-2.05604559605,-2.32346124794
-2.40681342703,-0.137460801587,0.481654487499,-1.78170664714
-1.82768119964,-1.59015645028,1.69935457105,0.0400479536693
0.261451027742,-0.922852098967,3.16705465459,2.38180255447
-2.04941674487,-1.68554774766,5.85475473814,2.90355715528
-5.18028451749,5.30175660365,6.43245482169,5.93531175609
-1.6311522901,8.60906095496,4.81015490524,5.87706635689
-0.0720200627147,2.88636530627,2.87785498878,2.3588209577
-0.642887835333,0.603669657576,2.46555507233,1.2105755585
-8.51375560795,2.16097400889,5.09325515588,1.93233015931
2.05537661944,3.2782783602,6.60095523942,1.56408476011
1.98450884682,1.7255827115,4.77865532297,2.20583936092
0.183641074211,-3.92711293718,4.19635540652,1.74759396173
6.64277330159,-1.82980858588,1.54405549007,3.65934856253
-1.61809447102,-1.81250423457,-1.47824442639,-0.468896836663
3.94103775637,0.934800116742,-3.28054434284,2.35285776414
3.49016998375,2.45210446805,-0.992844259295,3.86461236495
1.24930221113,3.56940881936,0.454855824251,7.11636696575
7.56843443852,2.33671317067,0.5825559078,5.00812156656
3.7375666659,-0.195982478021,0.0802559913463,1.43987616737
3.10669889329,6.24132187329,1.29795607489,5.34163076817
5.53583112067,-0.471373775403,-0.974343841559,4.90338536898
1.44496334806,-3.40406942409,-1.58664375801,0.175139969786
-2.56590442456,-3.58676507279,-0.298943674466,1.23689457059
8.53322780283,-5.05946072148,-1.49124359092,-0.0013508286047
5.38236003021,-5.24215637017,-3.82354350737,-3.3195962278
0.681492257598,-5.09485201886,-3.47584342382,-5.31784162699
-0.239375515015,-5.51754766755,-1.49814334028,-4.94608702619
0.939756712367,-5.39024331624,-3.63044325673,-5.27433242538
3.92888893975,0.797061035071,-3.75274317318,2.40742217543
9.61802116714,2.00436538638,-3.13504308964,4.30917677623
9.65715339452,4.43166973769,-0.847343006089,2.56093137704
6.52628562191,4.518974089,1.96035707746,2.97268597784
4.28541784929,3.9862784403,3.33805716101,4.03444057865
6.01455007668,3.69358279162,1.33575724455,3.57619517945
10.5236823041,6.81088714292,2.3734573281,4.65794978026
5.78281453145,4.37819149424,-0.138842588354,5.00970438107
7.67194675883,3.52549584554,0.318857495193,6.92145898187
10.6410789862,5.46280019685,3.06655757874,6.84321358268
-1.9497887864,4.34010454816,1.98425766229,2.17496818348
-4.03065655901,2.95740889947,2.06195774583,0.176722784288
-3.92152433163,4.04471325078,2.24965782938,0.728477385095
-2.97239210424,2.25201760209,1.74735791293,-0.759768014101
-10.5332598769,2.8293219534,1.40505799648,-0.418013413293
-7.61412764947,1.28662630471,1.75275808002,-2.68625881249
-12.3749954221,1.15393065602,-1.13954183643,-3.61450421168
-8.8058631947,-1.33876499267,-2.18184175288,-4.71274961088
-3.71673096732,-1.49146064137,-0.854141669337,-4.77099501007
-13.1075987399,-2.10415629005,1.35355841421,-5.04924040927
-12.8484665126,-2.99685193874,-1.28874150224,-6.69748580846
-10.3693342852,-1.52954758743,-1.5910414187,-4.73573120765
-8.17020205778,0.0777567638725,1.12665866485,-4.16397660685
-8.28106983039,0.455061115183,1.6243587484,-2.28222200604
-1.05193760301,0.832365466493,0.742058831944,1.48953259476
-6.01280537562,2.6896698178,0.889758915491,0.83128719557
2.49632685176,3.86697416911,-0.682541000962,0.123041796376
-3.43454092085,0.104278520419,-1.92484091741,-1.40520360282
1.51459130653,-1.65841712827,-0.367140833867,0.0965509979869
-0.296276466084,2.04888722304,0.52055924968,0.668305598792
-3.5271442387,-0.663808425652,-1.12174066677,-0.789939800401
-4.77801201131,0.0934959256556,-1.62404058323,-3.8681851996
-5.36887978393,-1.24919972304,-3.15634049968,-5.93643059879
-1.70974755655,-4.85189537172,-4.37864041613,-5.65467599798
-1.27061532916,-5.21459102042,-5.90094033259,-7.56292139718
-1.14148310178,-5.59728666911,-5.37324024904,-8.22116679637
-6.91235087439,-1.5799823178,-3.88554016549,-5.90941219557
-0.703218647002,-1.82267796649,-2.30784008194,-5.87765759476
-7.32408641962,-3.48537361518,0.0498600016035,-4.57590299396
-10.7749541922,-1.69806926387,-0.0924399148516,-2.16414839315
-7.67582196485,2.81923508744,0.455260168696,-0.902393792343
0.0933102625386,7.12653943875,-0.547039747757,1.85936080846
6.37244248992,6.31384379006,-0.43933966421,4.73111540927
-0.358425282695,4.10114814137,-2.10163958066,1.45287001007
-1.36929305531,7.51845249267,-1.69393949711,2.94462461088
-0.260160827926,11.315756844,1.27376058643,6.79637921168
-1.09102860054,1.25306119529,-4.27853933002,-2.29186618751
5.64810362685,-5.1896344534,-5.65083924647,-3.2601115867
-1.51276414577,-3.15233010209,-3.29313916293,-0.438356985898
-0.603631918384,-2.82502575078,-4.17543907938,-6.83660238509
-2.174499691,-6.02772139947,-5.18773899583,-8.83484778429
-4.50536746361,-3.32041704816,-5.09003891229,-9.25309318348
-0.256235236229,-2.12311269685,-1.61233882874,-5.44133858267
7.78289699115,-2.52580834554,-0.774638745192,-0.37958398187
7.75202921854,-2.14850399423,-1.16693866165,-0.527829381062
1.80116144592,-3.07119964292,-2.5392385781,-2.77607478026
7.05029367331,-7.29389529161,-5.63153849455,-3.72432017945
-0.000574099303776,-7.96659094031,-7.223838411,-6.79256557865
4.23855812808,-8.729286589,-3.81613832746,-7.99081097784
1.72769035547,-6.03198223769,-2.25843824391,-3.39905637703
9.52682258285,-4.26467788638,-2.43073816036,0.572698223772
9.18595481023,-6.75737353507,-3.22303807682,-3.01554717542
11.2550870376,-4.61006918376,-4.17533799327,-3.76379257462
12.364219265,-5.30276483245,-4.60763790972,-1.56203797381
10.4133514924,-2.42546048114,-3.06993782618,1.81971662699
5.54248371978,-7.12815612983,-5.61223774263,-1.1185287722
6.07161594716,-6.05085177852,-4.09453765908,-2.17677417139
2.46074817454,-1.63354742721,-0.556837575534,-2.10501957059
-5.52011959807,-1.8362430759,2.88086250801,-2.85326496978
-4.25098737068,0.731061275404,3.64856259156,1.85848963102
-6.4318551433,-0.971634373287,2.05626267511,1.17024423183
-3.15272291592,-1.53433002198,2.69396275865,0.451998832636
-0.85359068853,0.202974329331,1.3616628422,3.38375343344
1.84554153885,-1.71972131936,-0.210637074253,5.31550803425
5.26467376624,2.76758303195,0.787063009295,6.55726263505
-2.18619400638,0.804887383259,0.904763092842,1.24901723586
0.952938221009,0.732191734569,3.06246317639,0.820771836663
-4.2579295516,1.59949608588,5.11016325993,-1.65747356253
-8.99879732422,-1.82319956281,3.08786334348,-3.74571896173
-9.22966509683,-2.7458952115,0.625563427029,-2.92396436092
-6.69053286945,1.54140913981,1.15326351058,1.48779023989
-4.37140064207,4.51871349111,2.01096359412,5.69954484069
-0.49226841468,4.84601784242,2.44866367767,9.3812994415
-3.0231361873,-0.836677806266,2.57636376122,2.2130540423
-6.47400395991,-0.52937345496,2.38406384477,1.28480864311
-2.56487173252,-1.38206910365,2.73176392831,-0.473436756085
-2.99573950514,-1.02476475234,1.24946401186,0.0583178447232
-1.76660727775,3.84253959897,1.70716409541,1.90007244553
6.98252494963,-1.25015604972,1.42486417895,1.24182704633
11.071657177,0.437148301589,1.6425642625,6.28358164714
8.9607894044,5.4944526529,3.02026434605,7.27533624795
0.859921631782,10.0217570042,6.2879644296,8.37709084875
0.969053859171,8.58906135551,6.83566451314,5.72884544956
4.31818608656,8.02636570682,7.32336459669,3.91060005036
-1.54268168606,8.22367005813,5.97106468023,5.73235465117
-1.98663517442,-13.5045385174,-2.30968386628,-7.94227107558
0.778225714152,-10.8628836294,-1.19491030146,-9.32694495628
3.19308660273,-7.6512287413,-1.91013673663,-5.30161883698
-4.8820525087,-8.90957385323,0.164636828191,-6.67629271768
-1.91719162012,-12.0879189652,1.03941039301,-7.97096659838
-5.83233073155,-10.7462640771,0.0141839578373,-10.0656404791
-6.52746984297,-8.13460918902,-0.791042477338,-4.36031435978
-5.5926089544,-7.38295430095,0.273731087485,-0.734988240481
-5.34774806583,-13.0612994129,-2.65149534769,-7.61966212118
0.927112822741,-7.99964452481,-2.31672178287,-6.81433600188
-0.108026288686,-5.11798963674,-0.131948218044,-4.43900988258
-6.39316540011,-2.63633474867,2.77282534678,-5.59368376328
1.60169548847,-0.434679860598,4.0275989116,-2.61835764398
-0.573443622961,-1.15302497253,2.03237247642,-1.38303152468
-9.77858273439,-5.00137008446,-1.70285395875,-2.13770540538
1.20627815418,-5.44971519639,-1.09808039393,-2.92237928608
2.28113904276,-6.25806030832,-1.30330682911,-3.04705316678
10.2559999313,-2.44640542025,-2.63853326428,-0.871727047474
12.3008608199,-2.78475053218,-1.90375969946,-0.646400928174
16.4557217085,-5.47309564411,-0.788986134636,0.648925191126
1.46058259705,-4.66144075604,-2.28421256981,-3.03574868957
-0.714556514373,0.740214132027,-2.59943900499,-1.42042257027
6.9003043742,9.4118690201,1.84533455983,8.26490354903
-3.20483473723,0.373523908169,1.00010812466,4.16022966833
7.87002615134,5.44517879624,2.33488168948,3.57555578763
3.46488703992,2.26683368431,2.5096552543,2.71088190693
3.99974792849,2.05848857238,2.31442881913,4.47620802623
-2.15539118293,6.17014346045,4.09920238395,4.15153414553
-0.46053029436,0.191798348522,0.633975948773,-1.05313973517
-6.42566940578,2.38345323659,1.1487495136,1.76218638413
3.73919148279,7.76510812466,1.07352307842,6.21751250343
-2.12594762864,6.25676301273,-2.23170335676,4.12283862273
-1.06108674007,7.0884179008,0.403070208067,4.61816474203
-1.77622585149,5.76007278887,2.68784377289,3.61349086133
-4.08136496292,5.60172767694,1.72261733771,2.56881698063
-4.86650407434,6.67338256501,2.11739090254,6.50414309994
-0.941643185772,4.09503745308,1.31216446736,3.02946921924
-0.00678229719779,6.79669234115,1.82693803218,5.10479533854
0.208078591379,9.85834722922,2.32171159701,11.1001214578
5.99293947995,9.83000211729,1.89648516183,11.9754475771
-0.262199631477,8.14165700536,2.36125872665,9.52077369644
3.91266125709,4.25331189343,-0.163967708524,7.33609981574
-10.1324778543,-1.1350332185,-1.1291941437,-1.32857406496
-5.66761696575,-3.93337833043,-2.04442057888,-2.87324794566
1.12724392282,-0.971723442366,-2.10964701405,1.02207817364
3.26210481139,2.48993144571,-2.98487344923,5.76740429294
-5.52303430004,4.43158633378,-3.59009988441,5.30273041224
-4.16817341146,6.30324122185,-2.11532631958,7.49805653154
3.27668747711,5.11489610992,-1.09055275476,5.78338265084
-2.98845163432,8.10655099799,0.764220810062,5.69870877014
5.27640925426,12.4382058861,1.07899437489,6.77403488944
-5.43872985717,8.65986077413,1.09376793971,3.64936100874
3.38613103141,12.9215156622,3.26854150453,8.99468712805
9.08099191998,10.2631705503,3.35331506935,11.7000132473
3.51585280855,11.7348254383,3.90808863418,11.2853393666
7.44071369712,9.82648032641,1.362862199,9.88066548595
3.8855745857,10.9881352145,0.687635763825,10.7559916052
12.0604354743,10.3797901025,1.49240932865,9.55131772455
2.13529636285,4.29144499061,-0.922817106528,1.50664384385
-2.78984274858,6.07309987869,-1.3880435417,-0.388030036853
-1.31498186001,5.89475476675,1.95673002312,-0.982703917551
2.40987902857,3.78640965483,0.15150358794,-0.847377798251
6.49473991714,3.0880645429,0.126277152765,1.05794832105
5.57960080572,3.17971943097,0.551050717588,2.02327444035
-3.79553830571,2.72137431903,1.53582428241,1.37860055965
1.09932258286,1.0930292071,1.37059784723,1.69392667895
7.48418347144,2.64468409518,-0.684628587942,1.33925279825
2.80904436001,-0.123661016758,-0.0998550231179,0.744578917554
0.703905248582,-0.532006128684,-0.0850814582955,-0.0600949631462
11.2287661372,0.829648759383,-0.600307893472,0.595231156154
11.7336270257,0.511303647454,0.674465671353,-0.409442724545
-3.9615120857,-1.95704146448,-0.690760763826,-4.45411660524
-7.78665119713,-4.52538657641,-3.465987199,-8.10879048595
-3.32179030855,-4.68373168834,-1.90121363418,-7.81346436664
-1.11692941998,-3.37207680027,0.183559930645,-7.90813824734
-2.1020685314,-1.9504219122,0.448333495468,-6.85281212804
-2.68720764283,-1.86876702413,-1.87689293971,-6.57748600874
-6.80234675426,-6.17711213605,-2.62211937489,-7.35215988944
-5.33748586569,-7.72545724799,-4.02734581006,-9.36683377014
2.43737502289,-9.00380235992,-3.78257224524,-11.9015076508
-9.87776408853,-9.25214747185,-1.94779868042,-13.6661815315
-9.41290319996,-7.38049258378,-1.28302511559,-10.7808554122
-3.20804231139,-6.08883769571,-1.34825155077,-7.98552929294
-9.80318142282,-8.19718280764,-1.86347798595,-9.74020317364
-8.97832053424,-5.09552791957,-2.17870442112,-5.93487705434
-7.84345964567,-1.9238730315,-1.7139308563,-3.22955093504
-2.5285987571,0.757781856573,1.42084270853,-4.14422481574
-5.57373786852,1.01943674464,2.10561627335,-2.59889869643
-1.37887697995,1.97109163271,1.30038983817,-0.823572577136
-2.88401609138,-6.16725347922,-3.32483659701,-7.05824645783
-1.6091552028,-3.73559859115,-0.200063032182,-5.31292033853
-2.59429431423,-0.00394370307913,-1.87528946736,-3.78759421923
0.880566574346,1.41771118499,-1.18051590254,-3.20226809993
-3.09457253708,-2.18063392694,1.69425766229,-3.44694198063
-9.55971164851,0.74102096113,1.13903122711,0.248384138667
-4.53485075993,3.1126758492,1.47380479193,0.41371025797
-0.409989871361,3.81433073727,1.17857835676,3.02903637727
-2.46512898279,0.265985625338,0.0633519215789,1.73436249657
0.389731905787,-3.03235948659,-2.2218745136,0.489688615869
-0.71540720564,-2.52070459852,-1.81710094877,-3.99498526483
-1.81054631707,-1.89904971045,-0.16232738395,-5.91965914553
9.56431457151,9.14260517762,1.40244618087,4.72566697377
4.43917546008,4.71426006569,0.547219745697,4.66099309307
-1.17596365135,2.91591495376,-0.258006689481,3.19631921237
2.43889723723,6.82756984183,-0.633233124658,5.34164533167
5.7637581258,1.4792247299,-1.35845955983,3.53697145097
-0.741380985626,0.270879617969,-3.16368599501,1.55229757028
5.95347990295,0.962534506041,0.481087569813,1.68762368958
5.94834079152,-0.835810605891,2.03586113464,4.82294980888
-0.136798319905,-0.304155717822,0.140634699459,3.61827592818
7.50806256867,2.30749917025,-1.42459173572,4.00360204748
4.75292345724,-2.10084594168,-2.92981817089,0.318928166776
3.69778434582,-1.85919105361,-2.05504460607,-0.435745713921
-3.78735476561,-4.34753616554,-0.650271041248,-2.58041959462
-1.43249387704,-4.34588127747,0.264502523576,0.424906524679
1.34236701154,-0.104226389401,2.6992760884,6.55023264398
-5.08277209989,1.16742849867,1.60404965322,2.57555876328
-3.96791121132,-1.05091661326,1.13882321805,0.700884882581
-0.553050322742,-0.499261725196,1.94359678287,3.78621100188
-7.16818943417,-2.93760683712,-2.53162965231,-2.92846287882
-3.3733285456,-9.44595194905,-2.59685608748,-5.72313675952
7.10153234298,-6.45429706098,-3.00208252266,-1.33781064022
6.89639323155,-6.55264217291,-1.37730895784,-1.69248452092
3.27125412013,-5.75098728484,2.33746460699,-0.707158401616
-2.6838849913,-5.92933239677,3.25223817181,-1.66183228232
-5.74902410273,-3.96767750871,2.51701173663,-2.90650616302
1.55583678585,-0.736022620633,3.20178530145,1.92881995629
11.6106976744,2.59563226744,6.44655886628,5.99414607559
0.221344476759,-13.6384738372,0.704280523252,-11.1189171512
-6.28669834965,-14.3019833535,-0.68326843184,-13.4451288397
4.45525882395,-13.5854928699,-0.56081738693,-11.5613405283
2.58721599754,-14.2290023862,0.171633657979,-10.9475522169
-6.77082682887,-15.6925119026,-0.455915297111,-14.4937639054
-5.05886965527,-16.2960214189,-1.0034642522,-15.359975594
-8.82691248167,-11.2995309353,1.73898679271,-13.7961872826
-7.54495530808,-19.0530404516,0.681437837617,-18.8823989711
-1.31299813449,-18.6265499679,-0.576111117474,-18.8786106597
-1.30104096089,-14.4400594843,0.916339927437,-17.0648223482
-3.1290837873,-19.0335690006,0.978790972345,-14.6910340368
1.4228733863,-19.167078517,1.02124201726,-14.7472457254
-5.02516944011,-18.7105880333,-0.376306937836,-14.0334574139
-3.83321226652,-17.2240975497,-1.05385589293,-15.0496691025
3.71874490708,-22.367607066,-2.55140484802,-22.0658807911
5.63070208067,-17.7111165823,0.281046196893,-16.2720924796
-2.04734074573,-20.6346260987,-0.466502758198,-17.9183041682
0.53461642786,-20.428135615,-0.384051713288,-16.4645158568
11.2965736015,-15.9216451314,0.0583993316213,-10.0407275453
8.57853077505,-18.8251546477,-1.24914962347,-8.77693923389
17.8404879486,-19.4486641641,0.113301421439,-4.68315092245
12.6924451222,-24.1821736804,-1.21424753365,-9.99936261102
10.5844022958,-28.4456831968,-3.19179648874,-17.3955742996
20.9163594694,-27.1591927131,-3.30934544383,-20.9417859881
15.478316643,-28.2927022294,-3.19689439892,-22.8979976767
14.7302738166,-34.2362117458,-2.87444335401,-24.0642093653
16.5022309902,-34.4797212621,-3.2119923091,-25.4804210538
18.8141881638,-30.8932307785,-4.82954126419,-19.6466327424
25.6661453374,-29.5467402948,-4.20709021929,-16.892844431
20.028102511,-33.9902498112,-3.50463917438,-20.3690561195
19.9000596846,-31.7937593275,-3.44218812947,-19.3652678081
35.0020168582,-27.7372688438,-0.739737084557,-10.3514794967
24.0639740318,-29.9007783602,-2.71728603965,-7.45769118523
5.05593120537,-27.2342878765,-3.61483499474,-17.1339028738
2.04788837897,-15.7177973929,-0.422383949828,-10.1301145624
0.919845552562,-13.7513069092,-2.08993290492,-6.94632625092
1.46180272615,-8.62481642556,-3.00748186001,-5.33253793948
3.77375989975,0.1916740581,-1.0750308151,2.98125037195
14.1557170733,14.2081645418,0.237420229809,12.7150386834
1.92767424694,24.6346550254,0.439871274717,21.9688269948
8.94963142053,21.6611455091,-1.66767768037,28.0826153063
13.5015885941,25.0476359927,-1.61522663546,28.5764036177
17.7335457677,32.2941264764,-2.49277559055,33.9701919291
13.2755029413,31.25061696,-1.91032454564,35.7239802406
17.9574601149,30.8071074437,-1.22787350073,36.597768552
18.0194172885,29.8535979274,1.40457754417,37.3615568634
30.4313744621,26.260088411,2.89702858908,36.0053451749
17.6633316357,27.8765788947,2.86947963399,39.0091334863
4.37528880929,25.2930693783,-2.0980693211,33.2029217977
-6.50275401711,30.009559862,-0.965618276188,32.8267101092
-0.540796843525,29.0960503456,1.99683276872,28.4704984206
-2.98883966993,34.7625408293,0.77928381363,27.4042867321
-14.1368824963,33.829031313,1.63173485854,24.2180750435
-17.0249253227,42.4655217966,1.33418590345,23.0618633549
-12.2829681491,43.5820122803,3.95663694836,27.9556516664
-20.0410109756,40.6885027639,2.83908799327,24.3394399778
-17.059053802,41.9649932476,3.05153903818,23.4732282892
-16.7570966284,43.2714837312,2.06399008309,23.4570166007
-15.3351394548,45.1079742149,1.366441128,27.4008049121
-18.9731822812,42.4044646985,-0.211107827094,25.3945932235
-23.5212251076,37.0009551822,1.37134321781,19.538381535
-20.599267934,36.0674456659,1.32379426273,15.5021698464
-20.5873107604,34.3739361495,1.00624530763,14.1859581578
-19.2553535868,33.6704266332,0.908696352544,13.8097464693
-21.2633964132,34.4069171168,2.94114739745,15.0735347807
-19.6214392396,32.0934076005,2.77359844236,14.2473230922
-23.229482066,25.9098980841,2.25604948727,8.96111140359
-28.4275248924,26.7163885678,2.60850053218,7.17489971502
-21.7055677188,28.4028790515,2.13095157709,10.8886880265
-19.4136105452,26.7093695351,4.643402622,11.0324763379
-26.7816533716,24.6558600188,6.29585366691,8.80626464933
-24.619696198,26.9823505024,6.77830471182,9.81005296077
-25.2777390244,23.4388409861,2.30075575673,7.1838412722
-22.2057818509,23.2853314697,3.90320680164,11.7276295836
-21.1438246773,23.0218219534,5.84565784655,9.76141789507
-21.6518675037,20.3983124371,4.51810889146,11.7552062065
-15.4899103301,17.4748029207,2.41055993636,8.36899451794
-15.0079531565,19.6212934044,2.85301098127,8.12278282938
-10.2359959829,15.357783888,1.34546202618,7.43657114082
-11.6740388093,16.5042743717,1.65791307109,8.38035945225
-22.5520816357,12.0607648553,3.260364116,5.83414776369
-17.2901244621,9.927255339,5.01281516091,6.22793607512
-18.7981672885,8.45374582265,2.95526620582,1.98172438656
-17.1362101149,6.05023630631,1.78771725073,-0.00448730200515
-15.4642529413,6.49672678996,3.12016829564,-0.46069899057
-6.60229576772,5.54321727362,2.51261934055,0.903089320866
-11.3503385941,3.31970775728,0.315070385459,-0.143122367699
-12.0383814205,7.74619824093,1.46752143037,0.690665943737
-15.8464242469,8.40268872459,-0.0600275247216,4.92445425517
-7.25446707334,8.33917920825,0.272423520188,5.99824256661
-4.33250989975,7.09566969191,1.8048745651,5.45203087804
-3.83055272615,5.22216017556,1.93732561001,3.50581918948
-0.128595552556,3.86865065922,2.95977665492,3.82960750092
8.68336162104,7.15514114287,2.82222769983,6.44339581235
-3.77468120537,5.46163162653,2.56467874473,3.34718412379
-1.15272403177,0.0881221101881,1.28712978964,-0.739027564776
2.92923314182,-1.87538740615,1.56958083455,1.32476074666
-6.44880968459,-6.0488969225,-1.22796812054,-3.79145094191
-3.63685251099,-1.98240643884,0.174482924373,-3.51766263047
3.0551046626,-4.38591595519,-0.123066030719,-6.01387431903
2.8170618362,-7.03942547153,-0.270614985808,-6.3700860076
5.12901900979,-8.24293498787,-1.1681639409,-6.60629769616
5.06097618339,-11.5164445042,-3.80571289599,-11.8325093847
9.74293335698,-8.55995402056,-3.64326185108,-9.78872107329
9.54489053057,-10.1934635369,-4.36081080617,-7.50493276186
5.53684770417,-12.1469730532,-3.82835976126,-7.77114445042
7.57880487776,-10.1104825696,-2.29590871635,-5.48735613898
8.44076205136,-12.5239920859,-4.11345767144,-9.79356782755
0.742719224952,-10.6575016023,-2.84100662654,-11.6897795161
6.72467639855,-15.2810111186,-1.34855558162,-11.8759912047
6.30663357214,-18.964520635,-1.69610453672,-10.6922028932
5.29859074574,-21.8180301513,-1.29365349181,-13.4984145818
0.990547919329,-21.5415396676,-2.8412024469,-14.8146262704
4.49250509292,-20.265049184,-3.47875140199,-11.0108379589
8.41446226652,-17.9585587003,-2.29630035708,-9.5770496475
1.42641944011,-23.8720682167,-2.50384931217,-11.1732613361
12.6383766137,-25.025577733,-1.06139826726,-14.4094730246
12.0703337873,-25.1390872494,0.031052777651,-15.6856847132
16.4822909609,-24.4325967657,-0.22649617744,-13.8418964018
13.7942481345,-23.2661062821,0.61595486747,-15.9181080903
10.1562053081,-27.2596157984,-0.911594087622,-16.6243197789
19.3381624817,-26.3631253147,-2.49914304271,-12.5705314674
17.0001196553,-30.3766348311,-3.1766919978,-17.756743156
15.0620768289,-30.7301443474,-3.07424095289,-19.7429548446
21.6040340025,-27.7536538638,-2.92178990798,-15.9591665331
24.2559911761,-27.0971633801,-2.56933886307,-14.4053782217
20.5979483497,-24.5906728965,-0.526887818165,-11.6515899103
24.2999055232,-24.2441824128,-1.51443677326,-9.00780159883
19.6231772882,-17.8682297403,-6.35501573565,-8.05888539208
16.3842940673,-14.8627969457,-5.73522139532,-8.91248756412
16.2854108464,-14.3273641511,-5.19542705499,-4.68608973615
