27.6287172965,9.00015625,-2.14742369186,14.4104287791
30.8704845438,6.26163139764,-4.51337838766,12.7786208455
26.3522517911,2.85310654528,-6.12933308346,9.80681291201
19.6940190384,5.23458169292,-5.47528777925,11.7250049785
28.5457862857,4.23605684055,-4.50124247505,13.163197045
31.457553533,3.32753198819,-2.57719717085,11.3513891114
28.3293207803,2.46900713583,-2.69315186665,10.0695811779
28.1910880276,2.01048228347,-3.04910656244,5.04777324437
40.2628552749,1.8419574311,-2.20506125824,3.25596531084
48.7846225222,-1.78656742126,0.20898404596,11.9941573773
22.5163897695,-4.65509227362,-2.94697064984,3.54234944378
6.91815701681,-3.48361712598,-5.89292534563,-7.26945848975
8.61992426411,-2.17214197835,-3.50888004143,-3.34126642328
5.63169151141,3.01933316929,-0.404834737229,0.0169256431946
0.983458758707,4.91080831693,0.799210566973,0.815117709664
-4.024773994,9.55228346457,-0.476744128824,3.97330977614
-2.75300674669,12.4237586122,0.197301175379,9.83150184261
4.3087605006,12.3852337598,1.85134647958,9.15969390908
6.4605277479,10.6567089075,0.305391783784,5.35788597555
0.112294995201,6.19818405512,0.00943708798604,4.14607804202
-3.9759377575,6.71965920276,2.53348239219,2.54427010849
-4.8441705102,2.6911343504,2.46752769639,-1.39753782503
-8.9324032629,2.47260949803,0.991573000594,-2.03934575856
-10.5406360156,1.97408464567,1.0556183048,-4.86115369209
-4.7288687683,3.90555979331,1.299663609,-1.64296162562
-7.927101521,1.94703494095,0.713708913201,0.0152304408512
-3.50533427371,1.26851008858,0.137754217404,0.213422507322
-4.88356702641,4.89998523622,0.111799521606,-0.478385426206
-9.29179977911,0.841460383861,-0.714155174191,-2.47019335974
-13.2200325318,-3.1470644685,-1.55010986999,-5.75200129326
-15.4582652845,-3.35558932086,-1.50606456579,-5.41380922679
-15.8164980372,-1.66411417323,-1.15201926158,-4.18561716032
-5.50473078991,-0.112639025592,-0.857973957381,-2.06742509385
-7.80296354261,-1.33116387795,-0.213928653178,-2.75923302738
-8.97119629532,-2.12968873031,-0.999883348975,-1.51104096091
-8.47942904801,-2.78821358268,0.234161955227,1.19715110557
-7.24766180072,-0.00673843503682,2.16820725943,1.17534317204
-5.70589455342,-3.0752632874,0.00225256363137,-0.676464761491
-7.35412730612,-6.37378813976,-1.54370213217,-4.29827269502
-6.57236005882,-4.86231299213,-1.44965682796,-3.14008062855
-9.63059281152,-6.71083784449,-0.69561152376,-6.16188856208
-9.96882556422,-5.23936269685,1.33843378044,-6.60369649561
-8.98705831692,-5.05788754921,1.78247908464,-5.39550442914
-13.5852910696,-4.16641240158,2.13652438885,-4.63731236266
-1.29352382233,-0.934937253936,3.74056969305,0.530879703807
2.82824342497,3.1565378937,8.61461499725,8.83907177028
-6.51998932773,4.28801304134,7.02866030145,8.54726383675
-13.3382220804,6.15948818898,2.75270560566,2.62545590322
-16.3564548331,2.50096333661,2.77675090986,-1.64635203031
-18.9646875858,1.28243848425,4.45079621406,-4.83815996384
-15.9229203385,2.70391363189,4.60484151826,-4.29996789736
-11.0711530912,1.24538877952,5.53888682247,-3.41177583089
-10.8293858439,4.46686392716,5.40293212667,0.0964162355795
-9.97761859663,6.3183390748,6.18697743087,2.93460830205
-7.62585134934,5.96981422244,5.60102273507,2.09280036852
-6.37408410204,4.08128937008,4.59506803928,3.30099243499
-9.34231685474,3.91276451772,3.91911334348,0.699184501465
-9.70054960744,5.44423966535,3.16315864768,1.12737656794
-12.2087823601,2.21571481299,1.28720395189,0.765568634408
-13.0570151128,0.147189960629,3.16124925609,-4.90623929912
-12.3352478655,0.338665108266,3.96529456029,-4.25804723265
-12.9134806182,-2.37985974409,2.88933986449,-4.88985516618
-10.9017133709,-3.39838459646,2.0333851687,-5.91166309971
-12.9099461236,0.813090551179,2.5674304729,-0.523471033235
-7.38817887635,0.674565698817,2.5714757771,1.17472103324
-8.90641162905,-1.81395915355,1.6055210813,-3.96708690029
-5.80464438175,-3.08248400591,1.68956638551,-6.06889483382
-6.89287713445,-3.25100885827,1.71361168971,-7.68070276735
-16.4211098871,0.560466289367,1.19765699391,-5.00251070088
-10.5593426399,-5.908058563,-0.728297701887,-8.01431863441
-8.25757539255,-8.26658341536,-2.54425239768,-8.32612656793
-15.6358081453,-10.8251082677,-3.93020709348,-10.0279345015
-11.454040898,-12.8436331201,-4.28616178928,-14.679742435
-6.98227365066,-18.6221579724,-5.11211648508,-16.2415503685
-13.5705064034,-17.3206828248,-4.48807118087,-14.093358302
-12.4487391561,-12.9492076772,-1.11402587667,-10.2951662356
-7.33697190876,-11.2377325295,0.0200194275303,-9.71697416911
-9.88520466146,-6.35625738189,1.13406473173,-7.00878210264
-9.32343741416,-5.93478223426,-0.881889964064,-7.01059003616
-2.90167016686,-12.6733070866,-3.17784465986,-10.6523979697
-6.58990291956,-14.141831939,-2.58379935566,-14.2342059032
-6.74813567226,-15.8703567913,-2.39975405146,-13.9160138367
-7.45636842497,-11.3288816437,-1.06570874725,-12.1978217703
-10.7646011777,-7.35740649607,1.45833655695,-9.62962970381
-12.5328339304,-10.8559313484,2.66238186115,-11.2114376373
-8.80106668307,-10.2444562008,2.43642716535,-9.36324557086
-7.18929943577,-11.1629810532,1.19047246956,-9.42505350439
-6.93753218847,-11.0415059055,-1.09548222624,-7.47686143792
-7.74576494117,-11.0800307579,-1.97143692204,-8.19866937145
-7.85399769387,-13.6585556102,-1.92739161784,-8.82047730498
-5.02223044658,-10.6770804626,-2.59334631363,-4.82228523851
-1.91046319927,-9.00560531497,-4.29930100943,-1.64409317204
-3.55869595198,-7.59413016733,-3.60525570523,-3.68590110556
2.03307129532,-6.46265501969,-3.94121040103,-2.94770903909
3.92483854262,-2.38117987205,-2.82716509682,2.06048302738
3.74660578992,-3.34970472441,-1.80311979262,3.37867509385
-0.521626962782,-1.41822957678,-1.95907448842,-1.87313283968
1.38014028452,1.18324557086,-0.975029184216,0.565059226792
3.35190753182,0.234720718498,0.899016119987,2.77325129327
-0.986325220885,-1.38380413386,2.32306142419,0.991443359735
0.115442026417,-0.552328986225,2.43710672839,1.99963542621
1.58720927371,-2.21085383859,1.72115203259,1.90782749268
3.21897652101,-0.149378690952,-0.654802663203,0.946019559151
4.21074376831,3.91209645669,-0.0907573590002,3.13421162562
1.97251101561,-0.476428395676,-1.0567120548,2.19240369209
6.44427826291,-1.98495324804,-1.7326667506,1.39059575856
7.80604551021,1.1565218996,-1.14862144639,2.30878782504
15.4078127575,4.71799704724,-0.84457614219,4.07697989151
21.4495800048,8.81947219487,-0.840530837988,11.695171958
18.1813472521,-1.55905265749,-0.846485533785,10.1033640245
1.7531144994,-3.56757750985,-4.78244022958,1.63155609092
-0.745118253297,5.92389763779,-4.82839492538,5.11974815739
1.556648994,6.69537278543,-1.58434962118,7.46794022386
3.6784162413,7.93684793306,0.019695683025,9.90613229034
7.8601834886,15.0383230807,3.12374098723,14.8443243568
16.0619507359,12.6997982283,3.45778629143,15.2225164233
14.6837179832,12.911273376,3.30183159563,11.5107084898
9.4554852305,16.7927485236,2.93587689983,11.3789005562
17.2572524778,14.7242236713,2.77992220404,13.0170926227
11.7790197251,11.0856988189,2.40396750824,7.93528468917
15.2207869724,11.5971739665,1.30801281244,7.02347675564
16.5825542197,9.07864911417,-0.637941883354,6.19166882211
16.614321467,11.5901242618,-2.36389657915,6.81986088858
15.7160887143,9.19159940944,-2.96985127495,7.75805295505
15.5578559616,6.43307455708,-2.83580597075,3.42624502152
13.0396232089,4.49454970472,-2.59176066654,3.35443708799
15.3613904562,6.49602485235,-1.92771536234,2.97262915446
14.9831577035,7.33749999999,-0.76367005814,5.59082122094
-3.84233648255,-5.45403706395,-0.32002906977,-5.42213299419
-4.63975047495,-7.09960463972,-1.29931748993,-3.45936810452
-2.62716446735,-8.04517221548,-2.48860591009,-1.77660321484
1.00542154025,-8.67073979124,-1.56789433025,-3.74383832517
-4.74199245216,-5.59630736701,-0.507182750413,-3.9110734355
-6.60940644456,-5.99187494277,0.823528829425,-2.12830854583
-7.00682043696,-7.36744251854,0.714240409264,-1.08554365615
-7.80423442936,-6.1230100943,-0.455048010897,0.447221233517
-3.15164842176,-3.83857767006,1.31566356894,3.09998612319
-5.05906241416,-3.55414524583,0.36637514878,0.74275101286
-8.29647640656,-5.06971282159,-1.48291327138,-0.184484097466
1.07610960104,-9.39528039736,-1.90220169154,-1.02171920779
-8.24130439136,-10.7508479731,-1.7514901117,-5.75895431812
-11.6087183838,-9.98641554889,-0.870778531864,-6.55618942845
-16.9961323762,-7.81198312465,-0.370066952025,-6.56342453878
-5.45354636856,-7.79755070042,-1.41935537219,-4.94065964911
0.0490396390342,-8.12311827618,-2.20864379235,-5.07789475943
-6.17837435337,-9.60868585195,-3.96793221251,-6.54512986976
-0.985788345766,-5.55425342771,-5.09722063267,-2.57236498009
1.05679766183,-5.09982100347,-4.88650905283,-7.75960009042
0.13938366943,-7.79538857924,-5.03579747299,-8.50683520074
-3.95803032297,-8.750956155,-4.44508589315,-9.34407031107
-4.29544431537,-7.10652373077,-2.51437431331,-5.9113054214
-5.98285830777,-9.82209130653,-3.40366273348,-7.16854053173
-0.280272300173,-13.5976588823,-4.13295115364,-10.7057756421
2.50231370742,-10.3632264581,-2.1322395738,-7.00301075238
3.88489971503,-9.30879403383,-3.24152799396,-5.49024586271
-1.58251427738,-6.03436160959,-2.58081641412,-3.26748097304
0.410071730224,-4.27992918536,-2.21010483428,-2.06471608337
2.94265773782,-1.74549676112,-2.67939325444,-2.21195119369
3.75524374543,1.43893566311,-1.3686816746,-0.679186304022
7.35782975302,2.85336808735,-0.247970094763,1.19357858565
2.23041576062,3.43780051159,0.702741485075,3.24634347532
-0.676998231778,2.78223293582,1.94345306491,0.819108364996
-1.40441222418,2.18666536006,1.97416464475,-1.64812674533
6.75817378342,4.14109778429,1.26487622459,1.18463814434
4.28075979101,3.45553020852,1.40558780443,0.167403034013
9.58334579862,5.49996263276,1.97629938427,2.17016792368
12.0559318062,7.524395057,1.00701096411,6.10293281336
-5.73148218619,6.58882748124,1.79772254395,0.37569770303
1.38110382142,5.79325990547,3.45843412379,4.0984625927
1.85368982901,2.4476923297,3.59914570362,4.94122748237
10.6962758366,8.43212475394,3.80985728346,8.66399237205
0.348861844213,11.5665571782,5.3605688633,11.6667572617
11.4214478518,9.23098960241,2.93128044314,10.6995221514
6.91403385941,7.35542202665,0.35199202298,6.91228704106
4.83661986701,7.69985445088,1.16270360282,7.17505193074
7.85920587461,5.72428687512,1.26341518266,4.50781682041
8.85179188221,4.05871929936,1.1341267625,0.410581710079
3.17437788981,3.91315172359,-0.105161657665,-1.31665340025
-3.0330361026,6.17758414782,0.195549922174,-2.48388851058
-3.580450095,11.8820165721,2.90626150201,6.2388763791
5.65213591261,11.8764489963,4.54697308185,6.66164126877
5.1747219202,7.39088142053,1.69768466169,3.34440615844
-6.0926920722,6.23531384477,3.24839624153,0.767171048114
1.2298939354,2.019746269,3.52910782137,-3.29006406221
11.002479943,6.54417869324,1.09981940121,2.56270082746
2.7350659506,5.05861111747,2.25053098105,4.02546571713
-0.812348041803,5.66304354171,1.92124256089,4.0382306068
4.3302379658,2.43747596594,-1.84804585928,2.51099549648
5.7928239734,2.96190839018,0.282665720563,0.313760386147
-6.744590019,1.11634081441,0.00337730040155,1.40652527582
-0.122004011406,1.14077323865,-0.215911119759,-0.590709834509
2.15058199619,5.57520566288,0.824800460079,0.0220550551639
11.4731680038,12.2296380871,2.66551203992,6.52481994484
4.03575401139,9.80407051136,2.27622361976,7.51758483451
6.04834001899,9.31850293559,2.5269351996,6.82034972418
9.84092602659,7.58293535983,2.42764677944,7.88311461385
4.70351203419,8.48736778406,1.35835835927,3.51587950353
16.5360980418,11.5318002083,0.0990699391123,5.9886443932
0.218684049389,11.4762326325,0.349781518951,6.72140928287
-1.17872994301,13.7406650568,2.82049309879,9.03417417254
3.72385606459,9.795097481,0.79120467863,5.60693906221
4.50644207219,11.6995299052,2.23191625847,6.22970395189
-0.430971920217,8.00396232948,1.52262783831,5.10246884156
-0.868385912618,4.74839475371,1.80333941815,1.24523373123
2.02420009498,9.27282717795,3.89405099798,3.4779986209
-0.0932138974204,11.2072596022,3.96476257782,4.99076351058
7.14937211018,9.53169202642,1.92547415766,3.75352840025
5.08195811778,8.49612445065,1.4161857375,3.65629328992
7.03454412538,9.60055687489,3.12689731734,7.64905817959
4.13713013298,3.66498929912,3.19760889718,3.01182306926
1.91971614058,3.89942172336,1.93832047702,4.81458795894
1.33230214818,5.4238541476,2.60903205686,4.91735284861
3.88488815578,3.59828657183,1.0997436367,3.70011773828
4.55747416338,6.83271899607,2.90045521653,7.13288262796
2.02006017097,6.1671514203,4.29116679637,8.24564751763
15.2326461786,5.14158384454,3.12187837621,6.0284124073
-10.4647678138,-1.01398373123,-2.86741004395,-3.43882270303
-1.83218180623,2.03044869301,-3.07669846411,1.00394218664
-5.37959579863,0.164881117242,-2.64598688427,-2.40329292369
-4.61700979103,2.27931354148,-1.00527530443,1.85947196599
-1.36442378343,4.47374596571,-0.184563724592,5.11223685566
-4.98183777583,5.60817838995,1.87614785525,5.21500174533
-13.3992517682,5.59261081419,2.59685943509,3.087766635
-4.11666576063,4.34704323842,3.61757101492,-2.25946847532
4.26592024697,4.91147566265,2.36828259476,1.79329641435
-1.81149374543,2.95590808689,2.5389941746,2.10606130402
1.13109226217,3.28034051113,1.73970575444,2.87882619369
0.373678269763,3.22477293536,0.740417334279,1.15159108337
-4.20373572264,4.9792053596,0.311128914118,1.34435597304
-4.76114971504,-1.70636221617,-1.26815950604,0.127120862709
-8.25856370744,0.548070208068,0.0825520737953,-0.640114247617
-6.26597769984,3.7525026323,1.92326365363,0.552650642054
2.32660830776,4.31693505654,1.57397523347,1.73541553173
-1.42080568464,2.00136748078,-0.545313186688,0.0481804213996
-2.04821967704,-1.88420009499,-2.07460160685,-2.07905468893
-5.52563366944,-10.3197676708,-4.19389002701,-9.79628979926
-5.69304766184,-11.6253352465,-5.03317844717,-12.3335249096
-3.23046165424,-9.00090282228,-6.16246686733,-9.66076001991
-18.0478756466,-16.016470398,-7.25175528749,-14.6779951302
-9.54528963905,-12.1820379738,-6.46104370766,-11.7552302406
-4.15270363145,-9.53760554958,-5.84033212782,-5.6624653509
-1.96011762385,-12.6831731253,-4.53962054798,-8.97970046122
0.172468383753,-6.18874070111,-2.29890896814,-2.41693557155
3.30505439135,-6.93430827687,-1.9081973883,-1.19417068188
-3.70235960105,-9.45987585263,-0.59748580846,-3.75140579221
4.06022640655,-6.4754434284,0.0132257713785,-0.518640902532
-1.70718758585,-9.91101100416,0.423937351217,-0.995876012861
-0.534601578252,-8.82657857993,-0.955351068944,-1.94311112319
-0.172015570653,-9.2621461557,-2.8446394891,-4.96034623352
0.170570436945,-14.8177137315,-4.02392790927,-7.76758134384
4.31315644454,-13.1132813072,-3.61321632943,-6.67481645417
-4.71425754786,-9.63884888299,-0.712504749588,-3.7120515645
0.56832845974,-5.94441645875,0.89820683025,-0.999286674829
-2.90908553266,-11.4499840345,-0.36108158991,-5.56652178515
-4.87649952506,-7.46555161028,1.74962998993,-3.22375689548
1.16608648254,-12.731119186,-0.459658430233,-4.50099200581
-15.4555922965,-13.3567114826,1.97097383721,-20.5997819768
-29.0252028017,-15.1028816265,0.118922329927,-25.1192625263
-20.8848133069,-15.8190517705,-0.313129177351,-21.1887430759
-24.184423812,-15.2752219145,1.16481931537,-22.6082236255
-21.3640343172,-11.1013920585,1.88276780809,-19.0577041751
-8.16364482238,-5.41756220243,2.38071630081,-10.7771847246
-14.4632553275,-3.54373234641,4.84866479353,-10.0666652742
-10.9528658327,-3.31990249039,5.97661328626,-6.0061458238
-12.0824763379,-4.01607263436,3.81456177898,-7.51562637338
-7.29208684307,-4.37224277834,2.7425102717,-7.36510692296
-7.65169734824,-7.82841292231,-0.269541235582,-10.7245874725
3.93869214658,-0.704583066286,2.14840725714,-4.96406802212
8.76908164141,4.38924678974,2.71635574986,-2.94354857169
-0.500528863762,2.49307664576,2.50430424258,-2.39302912127
-6.13013936893,2.78690650178,3.6922527353,0.087490329146
2.39025012589,2.27073635781,4.28020122802,-2.13199022043
3.25063962072,-1.19543378616,2.85814972075,-2.50147077001
4.28102911554,-3.92160393014,0.936098213466,-3.78095131959
-3.73858138963,-5.52777407411,0.294046706187,-5.94043186917
0.0718081052,-2.55394421809,0.791995198908,-4.15991241875
3.38219760003,3.13988563793,2.73994369163,-0.159392968326
-0.187412905147,3.25371549396,2.09789218435,0.101126482095
7.84297658968,4.30754534998,3.20584067707,1.63164593252
4.0033660845,3.23137520601,4.93378916979,3.79216538294
8.25375557934,8.71520506203,5.58173766251,3.47268483336
18.3441450742,8.39903491806,4.55968615524,6.57320428378
16.224534569,9.20286477408,2.68763464796,7.1237237342
17.5949240638,10.6366946301,3.32558314068,7.45424318462
-3.81468644136,2.63052448613,1.1435316334,2.43476263504
8.68570305347,2.87435434216,1.64148012612,3.58528208547
2.94609254829,0.848184198177,1.25942861884,1.85580153589
11.2064820431,5.1120140542,2.16737711156,6.65632098631
9.41687153795,4.77584391023,2.10532560428,3.67684043673
7.05726103277,5.57967376625,1.21327409701,8.13735988715
5.1876505276,4.62350362228,1.02122258973,6.02787933757
3.17804002243,3.3073334783,1.55917108245,3.85839878799
14.2284295173,5.45116333432,2.93711957517,6.41891823841
6.51881901208,4.91499319035,1.86506806789,3.12943768883
3.34920850691,4.57882304638,0.13301656061,5.25995713926
-0.550401998265,3.0326529024,-1.04903494667,6.15047658968
11.0099874966,11.1264827584,1.61891354605,10.4309960401
5.40037699139,10.2803126144,0.886862038774,13.0415154905
0.0207664862137,10.2541424705,1.2048105315,9.41203494094
-8.86884401896,12.5779723265,2.57275902422,11.1925543914
6.00154547587,10.5518021825,0.340707516938,9.53307384178
5.31193497069,7.99563203854,-2.44134399034,9.83359329221
6.05232446552,5.24946189457,-4.24339549762,7.70411274263
7.74271396035,8.24329175059,-2.4954470049,9.30463219305
19.6131034552,4.22712160662,-2.93749851218,9.74515164347
4.35349295,2.77095146264,-1.76955001946,7.45567109389
6.97388244483,2.01478131867,-1.76160152674,7.87619054431
4.52427193966,6.88861117469,-1.64365303401,8.58670999473
0.954661434484,1.76244103071,-2.82570454129,5.17722944515
5.71505092931,1.83627088674,-2.74775604857,6.52774889557
1.04544042414,-2.07989925723,-4.41980755585,2.148268346
-10.324170081,-4.62606940121,-3.36185906313,-2.20121220358
-6.78378058621,-2.12223954519,-2.82391057041,1.83930724684
-3.85339109139,-5.29840968916,-4.42596207769,-0.25017330274
-9.05300159656,-8.84457983314,-5.89801358497,-1.63965385232
-9.11261210173,-4.67074997711,-6.29006509225,1.7508655981
0.327777393097,-4.17692012109,-7.67211659952,1.47138504852
1.08816688793,-7.26309026506,-8.2841681068,-0.768095501055
3.97855638275,-7.72926040904,-6.65621961408,-0.847576050634
0.338945877578,-8.06543055302,-5.63827112136,-3.86705660021
-7.2106646276,-7.84160069699,-4.54032262864,-2.98653714979
-8.90027513277,-3.90777084096,-2.74237413592,-1.69601769937
-4.06988563794,-1.85394098494,-2.4944256432,0.484501751051
-8.75949614311,-5.02011112892,-4.38647715048,-0.414978798528
-2.33910664829,-2.83628127289,-3.97852865775,2.68554065189
3.30128284654,-0.712451416864,-4.48058016503,4.97606010231
-5.47832765863,-3.34862156084,-5.15263167231,4.65657955273
6.93206183619,0.425208295179,-4.53468317959,7.35709900316
5.33245133102,-1.02096184879,-5.58673468687,7.29761845358
-2.28715917415,-4.43713199277,-5.01878619415,2.998137904
-0.0167696793287,-4.82330213675,-4.72083770143,1.44865735442
4.5236198155,-6.18947228072,-5.63288920871,0.599176804843
1.80400931032,-5.89564242469,-6.83494071598,-2.77030374474
-13.2156011948,-7.43181256867,-4.72699222326,-2.20978429432
-0.825211700023,-4.05798271265,-3.86904373054,2.00073515611
10.8751777948,1.54584714338,-1.85109523782,6.46125460653
6.53556728963,4.8396769994,-1.5131467451,7.77177405695
1.26595678446,2.53350685543,-2.75519825238,6.51229350737
1.25634627929,3.08733671145,-2.85724975966,8.00281295779
3.40673577412,-1.37883343252,-2.89930126694,6.48333240821
5.44712526894,-4.3050035765,-3.70135277422,2.04385185863
5.87751476377,-5.22117372048,-5.3934042815,2.52437130905
6.05790425859,-2.24734386445,-5.36545578877,7.03489075947
10.6482937534,2.59648599157,-2.76750729605,8.3054102099
6.87868324824,1.4203158476,-2.99955880333,5.32592966032
0.419072743072,-0.10585429638,-2.39161031061,1.46644911074
6.5694622379,4.18797555965,-0.513661817889,5.10696856116
1.09985173273,5.71180541567,-1.84571332517,5.05748801158
3.75024122755,3.7856352717,-0.947764832446,6.008007462
-3.21936927762,2.01946512772,-1.55981633973,2.97852691242
9.16102021721,0.033294983743,-2.361867847,2.83904636285
13.061409712,1.79712483977,-2.82391935428,6.27956581327
12.4217992069,2.34095469579,-2.61597086156,6.00008526369
10.6821887017,4.90478455181,0.401977631159,3.71060471411
6.21257819651,3.65861440784,1.72992612388,3.97112416453
-4.83703230866,4.43244426386,1.9178746166,3.16164361495
1.11335718616,0.576274119892,0.805823109323,1.03216306537
-2.50625331901,4.19010397591,0.253771602044,-0.117317484208
4.60413617582,-1.79606616806,-2.93827990523,-3.12679803379
-1.84547432935,-0.832236312035,-2.15033141251,-1.34627858337
-2.19508483453,-1.72840645601,-1.36238291979,-2.75575913294
-5.0046953397,-1.84457659999,-1.06443442707,-4.82523968252
-3.44430584487,3.96925325604,2.33351406565,-1.6747202321
5.43608364995,0.303083112063,1.85146255837,-3.49420078168
-0.773526855221,3.27691296809,2.34941105109,-2.07368133126
4.48686263961,5.20074282411,5.23735954381,0.956838119162
4.27725213443,8.86457268014,6.40530803653,2.20735756958
-4.82235837074,6.96840253616,5.14325652926,1.16787702001
0.908031124087,6.25223239218,5.79120502198,-0.961603529573
-1.21157938108,5.71606224821,5.4691535147,-0.351084079153
-2.83118988626,7.23989210423,6.40710200742,2.65943537127
3.42919960857,5.29372196026,5.90505050014,-1.48004517831
-1.73041089661,4.66755181628,4.63299899286,-3.45952572789
2.81997859822,-0.358618327693,3.08094748558,-5.87900627747
-15.1696319069,-3.17478847167,3.7088959783,-8.18848682705
-6.35924241212,-5.99095861564,2.08684447102,-10.2979673766
-7.29885291729,-6.97712875962,3.49479296375,-11.9174479262
-11.5384634225,-5.21329890359,3.32274145647,-11.2469284758
-1.87807392764,-4.04946904757,3.67068994919,-10.5864090254
-10.8476844328,-8.05563919155,3.33863844191,-12.4058895749
-17.797294938,-7.27180933552,5.75658693463,-13.0653701245
-6.92690544316,-9.3679794795,6.21453542735,-15.5248506741
-10.9965159483,-9.16414962347,6.66248392007,-17.4843312237
-20.3961264535,-11.7803197674,7.45043241279,-18.1138117733
-9.0386991279,-10.9139752907,1.66249273255,-6.82817223837
0.943081567028,-8.89030663453,1.45322242377,-3.42010308895
-9.67513773804,-9.01663797838,2.00395211499,-5.18203393953
-9.31335704311,-7.95296932223,1.74468180621,-4.19396479011
-2.60157634819,-5.81930066608,1.89541149743,0.244104359317
-3.70979565326,-9.63563200993,0.886141188652,-4.84782649126
-7.52801495833,-6.04196335377,1.96687087987,-3.20975734184
-15.9062342634,-6.34829469762,2.18760057109,-6.10168819241
-9.64445356848,-3.49462604147,1.43833026231,-4.49361904299
-1.97267287355,-0.890957385316,1.94905995353,-1.84554989357
-0.430892178625,-2.55728872916,0.41978964475,0.132519255858
6.30088851631,-0.673620073008,2.15051933597,2.48058840528
0.302669211233,2.22004858314,4.04124902719,2.46865755471
-1.23555009384,-2.8862827607,2.65197871841,-1.01327329587
4.08623060109,-2.63261410455,1.81270840963,0.374795853551
-3.66198870398,0.551054551601,1.45343810085,0.882865002975
1.56979199094,-0.195276792245,1.10416779207,-0.409065847602
0.79157268587,-0.341608136092,0.604897483287,0.649003301822
-5.1966466192,-1.28793947994,0.0656271745074,-0.242927548756
5.62513407573,2.18572917621,1.99635686573,0.215141600667
3.39691477065,-0.640602167634,-0.222913443054,-1.96678924991
3.42869546558,-3.15693351148,-1.57218375183,-3.68872010049
-8.23952383949,-0.863264855328,-1.22145406061,-1.89065095106
-6.30774314456,0.930403800823,-1.47072436939,-2.69258180164
-4.91596244964,1.83407245698,0.750005321825,-1.56451265222
-1.07418175471,0.617741113128,0.680735013045,0.903556497207
