-6.35492732557,-3.12030523255,-2.40352834303,-0.205261627914
-9.04279141297,-4.62586637062,-0.288905849437,-3.09336774401
2.10934449964,-6.9914275087,-0.664283355845,-1.3714738601
-4.33851958775,-6.97698864677,-2.51966086226,3.2504200238
-10.4163836751,1.90745021517,-0.985038368664,5.1223139077
3.98575223746,5.83188907709,0.289584124926,6.97420779161
-8.17211184993,1.74632793902,0.784206618519,3.24610167551
-4.75997593732,0.750766800957,1.82882911211,-3.78200444058
-9.70784002472,11.8252056629,2.1434516057,0.509889443318
-4.97570411211,2.57964452482,0.218074099292,1.62178332722
-1.4235681995,1.04408338675,2.72269659288,3.74367721113
-5.79143228689,8.51852224868,4.37731908647,4.38557109503
-8.62929637429,3.7029611106,2.27194158006,2.97746497894
-7.20716046168,6.88739997254,1.75656407366,0.0493588628415
-14.7650245491,6.67183883447,1.28118656725,-4.47874725326
-10.8628886365,7.8662776964,5.53580906084,0.153146630651
1.10924727614,13.8007165583,6.27043155443,10.5350405146
-0.698616811245,13.2551554203,1.79505404802,12.5469343985
-1.24648089864,11.4995942822,1.85967654161,12.4788282824
0.805655013966,8.73403314412,2.0842990352,9.52072216626
6.43779092658,6.21847200604,0.538921528792,3.75261605017
1.84992683918,10.812910868,1.25354402238,10.8545099341
-1.17793724821,12.1373497299,1.02816651597,11.346403818
2.1741986644,14.4017885918,0.0227890095648,13.0382977019
5.51633457701,12.6262274538,0.447411503157,14.4201915858
5.75847048961,10.7806663157,0.732033996746,14.6920854697
-3.18939359778,7.30510517763,0.156656490337,9.25397935359
3.29274231483,-2.56045596045,-0.248721016073,1.8058732375
-2.37512177256,2.16398290149,3.07590147752,0.487767121402
-1.43298585996,3.06842176342,2.92052397111,-0.810338994695
-13.2008499473,-4.54713937466,2.3651464647,-9.06844511079
-8.59871403474,-4.76270051273,1.90976895829,-10.6965512269
-9.72657812214,3.97173834921,5.13439145188,-3.26465734298
-3.04444220953,-4.45382278886,3.71901394547,-5.83276345908
-13.3823062969,1.73061607306,5.33363643907,-2.11086957518
-11.3301703843,-0.454945065005,4.38825893265,1.76102430873
-10.5980344717,7.84949379693,4.70288142625,5.55291819264
-7.0758985591,15.7339326589,6.99750391984,8.03481207654
1.48623735351,11.0483715208,3.71212641343,6.57670596044
-6.48162673388,3.03281038272,3.97674890702,4.51859984434
-10.0194908213,2.92724924465,5.30137140061,3.84049372825
-3.87735490867,6.33168810657,5.2959938942,7.19238761215
3.34478100394,5.4961269685,5.07061638779,7.23428149606
5.52691691655,12.9505658304,7.53523888138,7.51617537996
5.44905282915,9.78500469237,7.34986137497,6.99806926387
-1.27881125823,1.36944355429,2.52448386857,0.42996314777
4.23332465437,-12.7661175838,-4.90089363784,-7.93814296833
7.66546056698,-26.8716787218,-9.55627114425,-17.7062490844
3.12759647959,-21.7872398599,-8.63164865066,-15.5243552005
7.54973239219,-23.042800998,-7.87702615707,-19.4524613166
2.2218683048,-21.8083621361,-3.72240366348,-12.3305674327
9.39400421741,-13.1239232741,-1.75778116989,-7.92867354881
13.65614013,-13.6994844122,-1.0431586763,-11.4167796649
24.9782760426,-9.28504555027,-1.26853618271,-8.78488578099
23.7204119552,-10.1006066883,-3.28391368911,-4.43299189709
28.5025478678,-0.546167826404,-1.91929119552,3.34890198681
27.5646837804,-4.34172896448,-2.83466870193,3.54079587071
24.6068196931,-5.57729010254,-2.32004620834,1.37268975462
28.5289556057,-3.27285124061,-3.70542371475,-1.09541636147
25.3310915183,-6.18841237868,-4.36080122116,-5.47352247757
22.9532274309,-0.0539735167549,-3.93617872757,-3.27162859367
20.6953633435,-4.01953465482,-4.92155623398,-2.46973470976
28.2374992561,-2.75509579289,-3.42693374039,4.12215917414
35.8396351687,-2.84065693097,-3.6023112468,2.04405305804
15.5317710813,-8.05621806904,-3.11768875321,-8.80405305805
16.0839069939,-8.67177920711,-3.54306625961,-6.12215917415
11.9060429065,-15.1873403452,-5.90844376602,-5.72026529025
5.56817881913,-9.50290148325,-4.03382127243,-3.75837140634
2.39031473173,-10.1484626213,-5.84919877884,-2.98647752243
-6.75754935566,-22.7440237594,-7.25457628525,-16.5945836385
-3.83541344305,-19.0595848975,-7.69995379166,-16.3726897546
-4.57327753044,-18.9651460355,-8.21533129807,-11.1007958707
-12.0211416178,-12.3207071736,-4.75070880448,-12.2689019868
-6.90900570523,-10.1162683117,-5.20608631089,-15.8970081029
-1.35686979262,-13.3718294497,-8.33146381729,-14.045114219
-4.71473388001,-13.4773905878,-5.6268413237,-10.8032203351
-4.2925979674,-13.8429517259,-5.99221883012,-8.5513264512
-12.4304620548,-12.9585128639,-6.07759633652,-10.3894325673
-12.2783261422,-4.70407400202,-5.30297384293,-4.75753868339
-13.7661902296,0.490364859914,-4.53835134934,0.69435520051
5.45594568302,2.13480372184,-6.62372885575,-1.81375091559
0.578081595631,-4.61075741622,-6.48910636216,-4.92185703168
-7.17978249176,-6.2263185543,-5.43448386857,-3.22996314778
-3.87764657915,2.80812030763,-3.80986137498,-6.64806926388
1.20448933346,1.14255916957,-4.99523888139,-7.75617537997
-5.63337475394,-10.9830019685,-5.6906163878,-11.5542814961
7.58876115867,-3.50856310658,-2.2059938942,-5.19238761216
-5.01910292872,0.925875755354,-1.44137140061,-3.00049372826
-18.2369670161,7.66031461729,-0.326748907022,-1.16859984435
-18.6848311035,10.2647534792,2.50787358657,-0.596705960452
-7.6326951909,2.20919234114,1.99249608016,-3.36481207654
-9.65055927829,0.293631203076,1.05711857375,1.20708180736
-17.8384233657,3.838070065,0.741741067342,1.13897569126
-17.0162874531,2.30250892693,-0.383636439068,3.57086957517
-14.4241515405,8.99694778886,1.81098605452,2.34276345907
-14.4320156279,-3.3286133492,-0.0443914518855,-2.98534265703
-4.26987971526,-6.09417448728,-1.85976895829,-6.72344877312
1.96225619735,2.34026437465,1.1148535353,-1.92155488922
-6.64560789004,-2.34529676341,-0.470523971113,-2.72966100531
4.20652802257,-1.59085790148,-1.16590147752,-1.31776712141
7.41866393518,-1.82641903956,-0.741278983931,-3.2258732375
2.81079984778,3.49801982237,1.11334350966,2.2060206464
2.87293576039,6.05245868431,4.01796600325,4.1679145303
-1.314928327,4.79689754623,4.57258849684,2.55980841421
6.10720758561,5.20133640816,2.01721099043,1.45170229811
4.70934349821,-6.61422472991,1.06183348403,-1.67640381798
0.21147941082,-4.18978586798,2.93645597762,-1.79450993408
-0.0363846765722,3.24465299395,5.55107847121,4.08738394982
-8.13424876397,4.99909185588,5.7057009648,-0.300722166274
-5.74211285136,5.81353071781,5.10032345839,-3.34882828237
3.75002306125,1.39796957975,3.24494595198,-1.86693439846
-4.45784102614,2.86240844167,4.01956844557,2.88495948544
0.784294886467,9.9568473036,5.49419093916,10.1468533693
-8.65356920093,6.77128616553,2.69881343275,5.08874725325
-5.17143328832,4.47572502746,0.493435926344,3.88064113715
-9.32929737571,3.61016388939,-1.12194158006,2.31253502105
-9.51716146311,0.584602751325,-0.767319086473,-0.32557109504
-6.1250255505,3.15904161325,0.0173034071177,2.50632278886
0.597110362112,6.57348047518,0.061925900709,9.80821667277
3.53924627471,11.9679193371,2.4465483943,9.68011055667
-0.618617812674,5.22235819904,3.92117088789,6.76200444058
-1.22648190007,4.76679706098,3.69579338148,11.3638983245
-3.74434598746,14.1612359229,5.91041587507,11.8557922084
-3.83221007485,9.47567478483,4.23503836866,10.8276860923
4.29992583775,4.50011364677,3.26966086225,8.37957997619
10.4120617504,11.0245525087,5.59428335585,10.4414738601
4.26419766297,2.91899137062,3.24890584943,10.393367744
4.65633357557,14.2134302326,4.83352834303,17.5652616279
13.5711155523,8.67904069768,0.877870639531,9.71861555232
4.14261373261,0.937560972125,-0.646916201249,8.63132436252
6.27411191289,-2.87391875343,-0.67170304203,1.88403317272
4.35561009317,-2.31539847898,-0.166489882809,-0.283258017087
0.577108273446,-3.43687820454,1.70872327641,-1.66054920688
6.18860645372,-3.22835793009,0.183936435631,0.302159603314
5.910104634,-1.19983765565,-1.16085040515,1.13486841352
-1.86839718572,0.698682618797,-1.12563724593,3.52757722371
0.84310099456,-2.51279710675,0.0995759132911,3.80028603391
-2.21540082516,-5.75427683231,-0.37521092749,-2.83700515588
0.176097355114,-4.01575655786,-1.31999776827,-1.93429634569
-1.0724044646,-5.98723628342,-1.23478460905,-5.42158753549
-10.7709062843,-3.13871600897,-0.70957144983,-4.04887872529
-19.529408104,-0.640195734526,1.79564170939,-1.87616991509
-13.7279099238,3.30832453992,1.88085486861,-2.63346110489
-9.5264117435,-2.84315518563,0.12606802783,-2.54075229469
-8.42491356321,0.635365088816,1.24128118705,2.62195651551
-4.93341538294,0.0438853632586,2.08649434627,-1.46533467429
-4.86191720266,-8.0675943623,-1.29829249451,-3.78262586409
-1.89041902238,-3.35907408785,-2.62307933529,1.02008294611
2.5810791579,-4.7105538134,-2.75786617607,-4.80720824369
4.91257733818,-11.782033539,-5.74265301685,-3.93449943349
9.01407551845,-9.37351326451,-5.20743985763,-4.69179062329
9.01557369873,1.95500700993,-2.69222669841,-1.35908181309
7.07707187901,-10.6164727156,-8.01701353919,-1.61637300289
5.50857005929,-3.26795244117,-5.80180037997,-2.15366419269
8.26006823957,-7.13943216672,-5.54658722075,-5.68095538249
4.11156641984,-6.01091189228,-2.42137406153,-1.98824657229
10.2630646001,-1.25239161784,-1.03616090231,3.02446223791
6.1545627804,-3.38387134339,-1.27094774309,-7.93282895189
0.706060960681,1.52464893106,0.314265416129,-3.30012014169
2.08755914096,-1.31683079449,-1.23052142465,-2.1374113315
2.20905732124,2.40168947995,1.10469173457,-4.4047025213
1.79055550151,5.6802097544,3.31990489379,1.1380062889
-1.53794631821,10.1887300288,5.23511805301,1.8507150991
3.69355186207,11.8572503033,5.41033121223,0.543423909301
2.11505004235,23.6757705777,6.89554437145,6.7161327195
0.616548222628,14.2642908522,6.78075753067,6.6488415297
4.7380464029,14.0728111266,6.70597068989,7.8815503399
4.55954458319,11.0913314011,4.04118384911,4.3942591501
-4.19895723654,15.1098516755,2.87639700833,5.4769679603
-4.72745905626,16.04837195,4.52161016755,3.6696767705
-1.41596087598,15.7268922244,4.80682332677,3.6723855807
-2.5344626957,4.27541249885,1.96203648599,3.5850943909
-5.07296451542,6.0539327733,1.77724964521,3.2078032011
-1.36146633515,12.6024530477,2.06246280443,2.4305120113
3.89003184513,0.590973322192,-1.94232403635,-1.3467791785
3.09153002541,-3.78050640336,-3.08711087713,-2.1240703683
2.24302820569,-5.64198612891,-1.61189771791,-2.0313615581
-0.635473614035,-12.0834658545,-2.78668455869,-5.4986527479
-3.53397543375,-7.26494558002,-1.11147139947,-2.4559439377
3.95752274652,-5.25642530558,-0.896258240251,-0.863235127501
0.0890209268,-4.58790503113,-0.941045081032,-1.8805263173
3.76051910708,0.740615243314,-1.77583192181,0.752182492895
-1.41798271264,-4.18086448224,-4.19061876259,-1.87510869691
-1.23648453236,-9.22234420779,-3.30540560337,-2.3423998867
-2.81498635209,-9.98382393335,-2.15019244415,-3.8796910765
-11.6434881718,2.8346963411,3.45502071507,0.143017733695
-10.9519899915,-0.186783384455,-0.999766125713,-1.9542734561
-4.97049181125,-2.15826311001,0.425447033507,-7.78156464591
-5.90899363098,8.56025716444,3.97066019273,-1.47885583571
-1.2974954507,17.2487774389,5.82587335195,4.78385297449
-9.69599727042,4.43729771333,2.29108651117,0.986561784695
-6.97449909014,4.31581798778,1.83629967039,1.58927059489
-16.2430009099,5.60433826222,2.81151282961,1.1719794051
-7.14150272958,18.5428585367,7.12672598883,8.01468821529
-4.0300045493,10.1513788111,3.27193914805,2.69739702549
-0.718506369027,8.08989908556,0.317152307267,8.80010583569
4.76299181125,5.01841936001,1.96236546649,8.40281464589
2.95448999153,7.92693963445,3.76757862571,6.32552345609
4.70598817181,13.7454599089,5.48279178493,9.23823226629
2.95748635209,3.77398018334,2.66800494415,6.07094107649
3.07898453236,3.70250045779,2.32321810337,4.64364988669
4.60048271264,0.941020732236,3.87843126259,3.34635869689
8.40198089292,5.80954100668,4.43364442181,8.93906750709
2.5034790732,-5.77193871887,-2.16114241897,3.73177631729
3.98497725348,-3.41341844443,-1.80592925975,5.18448512749
0.036475433757,-14.43489817,-5.03071610053,-0.302806062311
-0.0520263859653,-7.22637789553,-1.79550294131,-2.83009725211
2.76947179431,-3.72785762109,-1.80028978209,-1.72738844191
-5.62903002541,-2.45933734664,-0.605076622875,-1.21467963171
-5.87753184513,-5.37081707219,-0.899863463654,-5.23197082151
-1.04603366485,-9.60229679775,-0.764650304434,-5.53926201131
0.0154645154253,-7.5337765233,-0.639437145213,-2.02655320111
-2.0830373043,-5.65525624886,-0.784223985993,-4.68384439091
-11.271539124,-14.8967359744,-1.16901082677,-12.4611355807
-4.51004094374,-9.02821569996,-2.96379766755,-10.3984267705
-1.17854276346,-13.6996954255,-5.12858450833,-13.0757179603
-10.2970445832,-10.4211751511,-2.05337134911,-5.94300915011
-9.30554640291,3.06734512337,1.22184181011,-1.63030033992
1.22595177737,-7.75413460218,-2.60294503067,-5.06759152971
3.59744995765,-2.75561432774,0.632268128546,0.035117280484
3.61894813793,3.34290594671,3.01748128776,3.24782609069
-0.839553681795,1.01142622116,1.54269444699,2.58053490088
1.08194449849,-10.9800535044,-2.75209239379,-4.02675628892
5.80344267876,-7.68153322995,-4.37687923457,-4.71404747872
2.07494085904,-11.6430129555,-7.30166607535,-3.53133866852
1.27643903932,-5.70449268106,-4.60645291613,0.0913701416794
-5.22206278041,-13.6659724066,-4.90123975691,-6.53592104812
2.21943539988,-12.6474521322,-4.19602659769,-4.07321223792
4.52093358016,-3.05893185772,-1.87081343847,-2.40050342772
-6.19756823957,-4.05041158327,-1.16560027926,-6.05779461752
-5.27607005929,-3.05189130883,-1.44038712004,-4.55508580732
0.935428120989,-3.82337103438,-1.21517396081,-2.65237699712
-0.373073698731,-12.6148507599,-5.7199608016,-1.97966818692
1.76842448155,-5.84633048549,-3.84474764237,2.85304062328
2.95992266182,1.50218978896,-1.85953448315,4.17574943348
10.9214208421,5.5007100634,1.77567867607,3.99845824368
6.30291902238,-2.83076966215,-1.95910816471,0.111167053878
4.60441720266,1.48775061229,-0.373895005494,4.11387586408
10.8459153829,-3.44372911326,-0.298681846274,4.54658467428
8.76741356322,5.82479116119,-0.163468687055,4.63929348448
1.14891174349,1.30331143563,0.391744472165,7.54200229468
2.63040992377,0.14183171008,0.316957631385,2.78471110488
2.10190810405,2.59035198452,2.6121707906,-0.522580084922
-6.38659371567,9.88887225897,3.43738394982,3.57012872528
-3.0550955354,-1.58260746658,0.592597109046,-3.54716246453
-6.76359735512,-3.69408719214,2.77781026827,-3.45445365433
-3.31209917484,0.994433082309,2.74302342749,-1.76174484413
6.00939900544,-0.887046643245,-0.361763413295,-1.99903603393
-2.52910281428,9.9714736312,-0.396550254076,-1.41632722373
2.84239536599,1.26999390565,-2.10133709485,-6.62361841353
-2.54610645372,9.08851418009,3.68387606436,2.43909039667
-10.8946082734,8.29703445454,3.67908922358,8.54179920687
0.886889906829,5.31555472898,0.164302382804,6.69450801707
11.1483880871,13.2840750034,4.47951554202,4.38721682727
0.0198862673897,11.0425952779,1.07472870124,3.18992563747
4.96138444767,5.74111555232,1.15994186047,-1.25736555233
-5.69017805233,-9.3538553779,-0.00274709302539,-12.8895566861
-8.26629237434,-15.6736273405,-1.50068119392,-17.6040358623
-7.06240669635,-8.71339930301,1.16138470518,-12.7485150385
-3.75852101836,-13.6931712656,0.543450604284,-12.6629942147
-0.814635340368,-7.81294322811,0.495516503384,-6.73747339087
0.0292503376222,-11.9227151907,0.117582402489,-9.64195256708
-6.76686398439,3.70751284678,3.55964830159,-3.00643174328
-12.2029783064,-10.2522591158,1.07171420069,-11.8309109195
-11.2490926284,-7.94203107833,2.3537800998,-11.0253900957
0.464793049578,-4.88180304088,4.1858459989,-6.59986927189
0.258678727569,-8.76157500343,2.887911898,-7.4243484481
-7.65743559444,-6.59134696598,3.68997779711,-8.8488276243
-5.25354991646,-10.2211189285,-0.127956303793,-3.4233068005
-0.159664238465,-11.4708908911,-1.08589040469,-5.7877859767
1.49422143952,-8.07066285364,-0.303824505587,-5.00226515291
-5.11189288248,-4.08043481619,0.918241393516,-4.41674432912
-0.308007204498,-2.29020677875,0.250307292619,-3.81122350532
-5.04412152651,-8.2099787413,-1.39762680828,-6.20570268152
-7.69023584852,-2.96975070385,0.434439090825,1.30981814228
-8.22635017053,-5.2295226664,-0.553495010072,-1.46466103393
-4.54246449254,-12.529294629,-4.33142911097,-6.71914021013
-12.3985788145,-18.6890665915,-2.64936321187,-9.17361938634
-0.33469313656,-10.1888385541,-0.377297312765,-7.91809856254
-2.48080745857,3.31138948338,3.33476858634,-1.34257773875
-6.66692178058,-3.56838247917,1.59683448544,-0.187056914951
-5.97303610259,-6.30815444172,-0.801099615457,-4.67153609115
-3.4591504246,-2.12792640427,0.340966283648,-5.20601526735
-4.24526474662,3.83230163317,-0.326967817251,-2.75049444356
-6.32137906862,-0.837470329381,0.995098081852,-5.56497361976
-7.37749339064,-4.83724229193,0.0971639809541,-5.96945279597
-1.26360771264,-0.557014254486,2.53922988006,-3.99393197217
12.5902779653,-1.55678621704,0.66129577916,-1.24841114838
9.01416364333,-4.54655817959,-1.03663832174,-0.59289032458
8.58804932132,4.89366985786,0.235427577365,3.52263049922
2.45193499931,4.8238978953,2.33749347647,5.88815132301
3.1858206773,6.04412593275,4.11955937557,9.95367214681
1.48970635529,4.3943539702,-1.28837472533,6.98919297061
0.85359203328,-6.19541799236,-6.49630882622,-3.9452862056
1.18747771127,-3.41518995491,-3.94424292712,-3.6897653818
7.98136338926,0.385038082539,-3.76217702802,-1.21424455801
6.69524906725,-2.04473388001,-3.07011112892,-0.428723734214
8.65913474524,5.53549415744,-1.25804522981,4.66679708959
6.40302042323,1.89572219488,-3.09597933071,3.04231791338
6.43690610121,8.09595023233,-1.43391343161,2.79783873718
8.25079177921,13.2661782698,1.8481524675,7.06335956097
8.84467745719,8.59640630722,-0.659781633402,11.8988803848
7.58856313518,23.1366343447,3.3222842657,18.8244012086
-0.19755118683,3.75686238212,-1.6356498352,7.02992203236
-0.423665508835,8.83709041957,-0.583583936093,8.74544285616
8.49022016915,14.567318457,2.60848196301,10.80096368
4.30410584714,12.2475464945,2.12054786211,5.23648450375
2.44799152513,1.56777453191,-3.26738623879,-0.587994672453
4.18187720312,8.70800256935,-1.41532033968,6.76752615134
1.94576288111,10.0982306068,-1.14325444058,12.0130469751
2.00964855909,15.0384586442,0.288811458522,10.3185677989
2.05353423709,8.24868668169,0.660877357624,7.30408862273
3.76741991508,5.72891471914,-1.16705674327,7.12960944653
3.72130559307,13.0891427566,2.45500915583,8.31513027032
1.88519127105,3.57937079404,-2.28292494507,5.79065109412
0.0890769490434,6.01959883148,-1.50085904596,5.51617191792
3.03296262703,9.90982686893,1.34120685314,8.05169274171
6.38684830502,9.63005490638,-0.496727247757,7.33721356551
8.79073398301,0.650282943825,-4.76466134865,3.3127343893
0.654619661003,3.47051098127,-2.35259544955,4.7682552131
7.70850533899,4.48073901872,-3.98052955045,0.433776036894
5.92239101698,-2.12903294383,-5.65846365135,0.479296860689
1.55627669497,5.27119509362,-3.10639775224,7.58481768449
3.27016237296,18.6714231311,3.97566814686,14.2303385083
5.50404805095,13.4916511685,0.597734045961,14.4958593321
5.38793372894,8.19187920596,1.22979994507,13.9613801559
-1.45818059307,12.7621072434,3.48186584417,9.20690097967
-2.71429491508,3.42233528085,-2.18606825673,4.53242180347
2.8295907629,7.1425633183,0.175997642373,5.26794262726
0.633476440897,16.1327913557,-0.421936458524,10.3034634511
8.11736211888,-2.07698060681,-4.53987055942,5.09898427486
9.79124779687,0.333247430641,-3.12780466032,3.42450509865
2.92513347486,17.8434754681,1.36426123878,10.4000259224
2.17901915285,8.24370350553,1.18632713789,9.34554674624
3.00290483084,8.49393154299,-0.80160696301,11.94106757
0.426790508827,1.61415958043,-1.84954106391,3.76658839384
-1.40932381318,7.07438761788,-1.38747516481,5.24210921763
2.38456186481,8.33461565533,-1.2054092657,10.9876300414
0.208447542798,3.75484369277,-3.5733433666,3.94315086522
2.95233322079,1.94507173022,-4.3112774675,2.04867168902
7.46621889878,6.48529976767,-2.62921156839,5.17419251282
2.26010457677,8.77552780511,-0.0371456692919,8.10971333661
2.25399025476,13.1657558426,4.83492022981,11.6152341604
9.57787593274,1.92598388001,-2.23301387109,4.5307549842
6.67176161073,7.67621191746,0.479052028017,8.936275808
2.48564728872,15.0764399549,6.75111792712,10.7517966318
-4.47046703329,8.46666799235,0.993183826222,5.58731745559
0.3934186447,-4.1731039702,-5.13475027468,3.93283827939
4.72730432269,12.9071240672,8.07731562443,7.79835910318
-2.66880999932,3.9273521047,2.84938152353,2.86387992698
-3.32492432133,-7.02241985786,3.76144742263,3.06940075078
-0.38103864334,-5.20219182041,0.923513321737,-4.30507842543
0.53284703465,9.90803621704,4.02557922084,4.14044239837
-0.253267287364,19.1282642545,9.36764511994,8.83596322217
2.49061839063,-14.9315077081,-8.73028898096,2.16148404596
-3.08549593138,7.64872032938,0.341776918147,9.89700486976
3.03838974661,-11.1210516332,-1.60615718275,-5.39747430645
-2.81772457541,-15.3008235957,-1.11409128365,-10.2219534826
3.56616110258,22.0094044417,0.0279746154556,10.6535673411
7.25004678057,12.1396324792,-2.46995948544,6.13908816495
6.66393245856,-8.06013948339,8.14210641366,1.65460898874
6.70781813655,-22.9199114459,-0.0358276872375,-2.81987018746
-2.01829618546,-5.11968340849,0.656238211866,-1.02434936367
-1.03441050747,-1.87945537105,3.00830411097,1.12117146013
-2.09052482948,9.9107726664,11.0503700101,2.83669228393
-1.49663915149,-2.53899929615,2.31243590917,-6.05778689228
-3.5327534735,-15.5187712587,1.48450180828,-10.5422660685
-12.4488677955,-9.91854322125,6.73656770738,-7.54674524469
-2.71498211752,-7.49831518381,4.12863360648,-8.77122442089
-3.94109643953,-7.04808714636,2.87069950558,-7.72570359709
-1.73721076154,-5.63785910892,-1.99723459531,-12.7301827733
-1.43332508355,-9.78763107147,-5.57516869621,-16.5046619495
-9.20943940557,-1.10740303402,-0.953102797106,-1.94914112571
-5.19555372758,-16.0371749966,-3.581036898,-11.2736203019
-7.81166804959,-13.0769469591,2.5610290011,-8.78809947812
-1.64778237159,-16.9667189217,-3.1869050998,-18.4425786543
-3.55389669361,-22.4364908842,-2.42483920069,-19.4970578305
-7.04001101562,-1.05626284679,-2.02277330159,-10.9115370067
-3.35612533763,7.14396519066,-1.86070740249,-2.70601618293
-4.97223965964,-28.6358067719,-10.5086415034,-19.0404953591
-7.96835398165,-17.3555787344,2.81342439572,-18.3649745353
-10.9044683037,-16.555350697,-3.87450970518,-12.1094537115
-12.5405826257,-13.0351226595,-0.852443806079,-11.9039328877
-6.93669694768,-0.874894622099,4.30962209302,-15.9284120639
3.61941860466,0.219414970939,-2.94640988372,0.329952761622
9.56113666797,-0.348061052227,-4.79361085996,3.32067816105
7.84285473128,8.08446292461,-3.57081183621,3.59140356047
1.15457279459,-6.41301309856,-3.31801281245,-2.47787104011
10.4062908579,-3.56048912172,-3.60521378869,0.462854359313
3.78800892122,12.5020348551,1.52758523507,8.42357975874
4.42972698453,-7.18544116805,-4.78961574117,1.21430515816
5.05144504784,-3.24291719121,-0.936816717407,-3.21496944242
3.51316311116,8.85960678562,-1.95401769365,9.34575595701
5.04488117447,3.24213076246,-2.55121866989,11.7264813564
1.53659923778,-2.27534526071,-1.87841964613,3.60720675585
4.23831730109,1.37717871613,0.164379377631,-2.49206784472
2.02003536441,-4.67029730704,-1.99282159861,-3.1713424453
1.04175342772,-14.6277733302,-10.7200225749,-9.15061704587
-2.40652850897,3.17475064664,0.352776448908,0.380108353547
-3.54481044566,-21.0227253765,-6.05442452733,-0.889166247031
-2.07309238235,-2.77020139969,-1.06162550357,4.7515591524
-2.08137431903,13.0423225771,1.90117352019,3.58228455182
-4.33965625572,2.90484655398,2.53397254395,-2.06699004876
1.54206180759,1.92737053082,0.926771567707,0.153735350665
-0.656220129094,-6.83010549235,-2.99042940854,-1.32553924992
2.27549793422,0.272418484485,0.572369615224,1.96518614951
5.82721599753,-6.38505753868,0.825168638983,2.60591154893
2.41893406085,2.18746643816,1.61796766274,6.67663694836
-4.43934787584,2.19999041499,1.0007666865,0.787362347779
2.17237018747,19.5025143918,5.45356571026,12.7280877472
