3.70101017442,4.96983284884,-4.41407703489,0.891348110454
0.396369512227,6.19173877838,-2.99575864654,1.6842242721
2.65172885003,8.37364470793,-0.527440258198,0.337100433746
6.16708818783,8.23555063748,-1.72912186985,1.7599765954
6.33244752564,7.37745656702,-2.34080348151,1.61285275704
4.20780686344,4.92936249657,-2.13248509316,1.22572891869
5.64316620125,2.46126842611,-2.95416670482,-0.671394919667
8.73852553905,2.05317435566,-5.26584831647,0.891481241979
5.63388487686,1.86508028521,-4.56752992813,-0.355642596376
7.26924421466,0.136986214751,-4.86921153978,-0.162766434725
1.77460355247,0.238892144297,-4.26089315144,0.79010972692
2.73996289027,2.96079807384,-1.2825747631,1.14298588857
2.74532222807,-1.20729599661,-1.40425637475,-6.42413794979
3.15068156588,0.664609932935,-1.7159379864,-4.20126178814
4.31604090368,-0.57348413752,-0.787619598061,-1.2383856265
0.471400241488,1.96842179203,-0.309301209716,0.0744905351494
-1.48324042071,-1.12967227843,1.08901717863,-2.5326333032
-1.3478810829,1.68223365112,2.81733556697,-0.109757141556
0.5274782549,1.44413958066,1.50565395532,-0.446880979911
0.312837592704,-2.47395448979,0.0139723436623,-1.69400481826
-4.69180306949,-0.442048560244,1.76229073201,0.668871343383
-6.60644373169,1.6698573693,2.33060912035,-0.708252494973
-3.56108439388,4.48176329885,1.0689275087,1.72462366667
1.87427494392,6.93366922839,1.38724589704,7.43749982832
2.20963428173,4.64557515794,1.62556428539,1.83037598997
2.72499361953,7.53748108748,2.79388267373,6.18325215162
4.39035295734,9.98938701703,4.05220106208,8.00612831326
5.53571229514,9.06129294658,2.14051945042,5.80900447491
6.72107163294,2.97319887612,-2.03116216123,1.95188063655
4.80643097075,-0.984895194332,-0.82284377289,-1.0552432018
2.52179030855,-2.65298926479,-2.30452538455,-2.63236704015
-0.192850353642,-8.83108333524,-3.6662069962,-5.98949087851
-2.67749101584,-5.9491774057,-1.39788860785,-6.13661471686
-3.45213167803,-7.36727147615,1.07042978049,-3.21373855522
-4.69677234023,-10.3053655466,0.878748168834,-6.38086239357
-6.62141300242,-9.01345961706,0.0770665571781,-5.53798623192
-1.65605366462,-8.35155368751,-0.514615054479,-4.36511007027
-2.63069432682,-10.259647758,-3.20629666613,-7.68223390863
-5.26533498901,-11.2077418284,-3.13797827779,-7.42935774698
-5.32997565121,-7.28583589887,-0.779659889442,-1.80648158534
-0.874616313402,-0.113929969328,1.3786584989,4.10639457631
-1.1192569756,-1.31202403978,0.956976887246,3.58927073796
-2.47389763779,-4.33011811024,-0.304704724407,2.9321468996
-3.29853829999,-3.55821218069,0.643613663935,0.525023061251
-2.51317896218,-4.79630625114,0.331932052281,-2.6821007771
-4.94781962438,-4.0044003216,0.660250440626,0.440775384541
-2.90246028658,-1.23249439205,-0.0114311710313,2.43365154619
-3.10710094877,0.969411537493,-0.493112782686,5.98652770784
-1.20174161097,-0.448682532961,-0.37479439434,7.95940386948
-1.59638227316,-2.57677660342,-1.456476006,2.90228003113
-2.93102293536,0.0751293261301,1.59184238235,1.68515619278
5.14433640245,5.47703525568,2.85016077069,9.00803235442
10.6196957402,3.02894118522,1.91847915904,7.79090851607
7.09505507805,4.56084711477,-1.38320245262,10.7937846777
-3.00958558414,3.03275304431,-1.39488406427,5.46666083936
-5.97422624634,1.32465897386,1.54343432407,4.73953700101
-1.20886690853,2.77656490341,2.33175271242,3.36241316265
-0.133507570728,1.06847083295,1.34007110076,1.9252893243
-3.74814823292,1.3003767625,3.73838948911,4.26816548594
-6.72278889512,-1.33771730796,5.59670787745,4.36104164759
-5.28742955731,-0.43581137841,4.4250262658,3.52391780924
-1.19207021951,-1.35390544887,4.14334465414,2.04679397088
-1.67671088171,-0.511999519319,5.51166304249,3.16967013253
1.7486484561,-0.730093589774,6.29998143083,3.61254629418
-0.505992206097,-3.59818766023,5.48829981918,0.845422455823
-4.01063286829,-4.63628173068,2.05661820752,-2.49170138253
-5.08527353049,-9.08437580114,-1.06506340414,-7.12882522088
-3.17991419268,-9.18246987159,-1.84674501579,-9.81594905924
-1.00455485488,-7.27056394204,-0.988426627448,-9.54307289759
-1.21919551707,-5.8686580125,0.299891760898,-7.63019673594
-1.28383617927,-10.486752083,-1.12178985076,-11.1073205743
-1.59847684147,-2.33484615341,-0.353471462411,-4.92444441265
-2.53311750366,-0.642940223861,2.89484692593,-0.911568251006
-3.55775816586,2.34896570569,5.45316531428,-1.40869208936
-6.36239882805,-0.389128364769,3.58148370262,-4.34581592771
-5.39703949025,-3.25722243522,1.90980209097,-2.48293976607
-4.70168015244,-3.31531650568,1.15812047931,-0.700063604418
-5.59632081464,-5.48341057613,-0.933561132342,-6.65718744277
-4.25096147684,-2.92150464659,-0.745242744,-4.59431128113
-5.98560213903,-3.19959871704,-0.0869243556535,-6.50143511948
-6.94024280123,-2.91769278749,-0.108605967309,-6.97855895784
-8.84488346342,-2.41578685795,-0.100287578965,-2.67568279619
-4.83952412562,0.996119071598,2.25803080938,0.737193365461
-1.54416478781,2.17802500114,3.04634919772,0.280069527107
-2.67880545001,-1.05006906931,1.65466758607,-3.34705431125
-8.04344611221,-1.95816313977,-0.397014025586,-4.2541781496
-4.9080867744,-6.18625721022,-3.02869563724,-6.72130198796
-2.8727274366,-4.13435128067,-2.4103772489,-4.51842582631
-0.247368098791,-0.812445351127,0.517941139447,0.0944503353348
2.36799123901,0.379460578418,1.98625952779,-0.0026735030151
2.28335057682,5.22136650796,2.26457791614,7.02020265863
1.97870991462,1.30327243751,1.10289630448,2.70307882028
0.394069252425,-1.87482163294,-1.18878530717,-1.24404501808
-0.0105714097699,1.1770842966,-2.01046691883,3.23883114357
-2.32521207196,-1.04100977385,0.0378514695167,1.10170730521
-0.849852734162,-0.319103844306,-0.583830142139,-1.98541653314
2.86550660364,1.53280208524,-0.0555117537933,-0.57254037149
1.55086594145,7.04470801479,1.26280663455,-0.819664209845
1.13622527925,4.06661394433,1.7911250229,-0.7467880482
4.87158461706,3.85851987388,2.37944341124,0.406088113446
4.93694395486,3.73042580342,2.89776179958,0.638964275091
0.022303292666,5.80233173297,4.71608018793,1.90184043674
4.09766263047,5.48423766251,3.70439857627,2.76471659839
2.38302196827,5.34614359206,2.39271696462,4.03759276003
0.19838130608,3.65804952161,0.501035352963,4.38046892168
-0.386259356117,0.809955451152,-0.450646258691,-1.10665491668
1.60909998169,3.6018613807,0.197672129654,0.0462212449711
-0.0155406805097,2.80376731024,0.295990517998,2.26909740662
1.9598186573,5.10567323979,0.884308906343,2.88197356826
4.2151779951,4.91757916934,0.202627294688,2.83484972991
4.7405373329,2.51948509888,-0.0290543169685,4.92772589156
1.02589667071,2.75139102843,0.149264071377,2.8606020532
-0.818743991485,2.27329695797,2.03758245972,-0.396521785151
-1.33338465368,4.47520288752,2.36590084807,-1.3236456235
-3.33802531588,1.47710881706,1.61421923641,-2.23076946186
-2.95266597807,-3.34098525339,-0.707462375243,-2.43789330021
-3.23730664027,-0.569079323844,-2.2391439869,1.66498286144
0.138052697535,-2.9271733943,-4.56082559856,1.54785902308
2.96341203534,-1.81526746475,-6.00250721021,2.61073518473
1.97877137314,-3.99336153521,-5.61418882186,-3.54638865363
2.16413071095,-3.33145560566,-4.12587043352,-4.25351249198
3.12949004875,-1.30954967611,-3.29755204518,-0.730636330332
2.84484938656,-2.63764374657,-4.33923365683,-3.37776016869
1.41020872436,-2.90573781702,-4.84091526849,-4.93488400704
6.84556806217,0.616168112523,-3.76259688014,0.597992154606
10.0309274,5.20807404207,-3.5342784918,4.10086831625
10.3662867378,6.60997997161,-3.72596010345,5.7637444779
11.9116460756,8.23188590116,-3.88764171511,8.99662063954
1.35927325582,-5.42593386628,-2.36623546512,2.29353561046
-2.19205265176,-7.08094376602,0.543408744961,-0.248641131442
-0.393378559327,-7.40595366576,0.743052955042,-0.180817873337
1.2852955331,-5.13096356551,0.682697165123,-0.622994615238
1.71396962553,-0.265973465253,2.4423413752,-0.375171357133
-0.567356282045,0.249016635004,2.09198558528,0.36265190097
-0.628682189616,-5.23599326474,-0.118370204636,-4.18952484093
-3.97000809719,-6.60100316448,-0.728725994555,-7.78170158282
-4.84133400476,-4.41601306423,-0.589081784474,-4.04387832472
-3.29265991233,-3.21102296397,-1.40943757439,-0.916055066617
-0.693985819904,1.31396713629,0.110206635687,-2.53823180851
-1.20531172748,-2.20104276346,-1.50014915423,-5.62040855041
-3.65663763505,-4.8160526632,-2.68050494415,-6.04258529231
-2.46796354262,-1.98106256295,-0.540860734071,-2.0847620342
6.77071054981,2.90392753731,1.13878347601,5.0030612239
7.84938464224,5.26891763757,4.02842768609,10.660884482
4.67805873466,2.36390773782,2.48807189617,2.90870774011
-0.993267172908,6.39889783808,2.05771610625,1.41653099821
-2.82459308048,10.1738879383,1.52736031633,6.20435425632
1.11408101195,8.22887803859,-0.772995473586,4.46217751442
-0.257244895623,6.07386813885,0.476648736492,4.65000077252
-1.1085708032,4.05885823911,-1.95370705343,3.79782403062
-2.37989671077,5.61384833936,-1.08406284334,6.55564728873
0.088777381663,-0.651161560381,-1.46441863326,1.97347054683
0.42745147409,-0.226171460125,-0.944774423184,0.301293804932
2.69612556652,-0.0311813598692,-1.8351302131,1.15911706303
0.264799658948,-0.866191259613,-0.0454860030222,3.19694032114
-2.28652624862,-0.751201159356,1.91415820706,4.74476357924
2.3521478438,1.1137889409,1.36380241714,5.37258683734
1.57082193623,2.22877904116,1.96344662722,4.19041009545
1.48949602866,3.63376914141,2.7230908373,7.11823335355
-0.361829878913,-0.55124075833,0.922735047381,2.16605661165
-1.56315578649,-2.92625065808,-1.15762074254,-6.12612013024
-2.45448169406,-3.15126055782,-3.09797653246,-5.73829687214
-0.0758076016282,-1.52627045756,-2.44833232238,-4.78047361404
-0.227133509201,-1.26128035731,-1.2686881123,-2.07265035593
0.941540583228,2.59370974295,0.300956097783,3.23517290217
2.42021467566,1.46869984321,0.030600307864,1.62299616027
2.30888876808,2.18368994346,-0.0597554820542,-2.12918058163
1.28756286051,4.05868004372,-1.06011127197,-0.941357323522
0.30623695294,1.63367014398,-1.46046706189,-3.19353406542
-0.115088954632,-2.95133975577,-1.91082285181,-5.64571080732
-2.6764148622,-2.46634965551,-2.28117864173,-2.84788754921
-4.79774076978,-1.48135955526,-1.54153443165,-3.72006429111
-2.99906667735,-1.846369455,-0.251890221571,-2.79224103301
-3.08039258492,-5.05137935474,-0.0722460114903,-4.7644177749
-3.55171849249,-1.45638925449,0.0873981985915,0.0934054831996
-1.73304440006,2.47860084577,0.76704240867,2.02122874131
0.955629692364,-2.89640905397,0.496686618751,-2.47094800059
-1.07569621521,-2.90141895372,-0.683669171167,-2.89312474249
0.29297787722,1.23357114654,-0.174024961087,-0.225301484385
2.62165196965,1.9185612468,0.275619248994,2.95252177371
1.67032606208,-0.476448652948,0.565263459075,2.06034503182
-2.5309998455,1.45854144731,2.11490766915,0.988168289921
1.45767424693,3.96353154756,2.18455187924,2.89599154803
0.766348339361,4.97852164782,3.50419608932,3.52381480613
1.68502243179,6.85351174808,3.7238402994,7.66163806423
3.88369652422,5.50850184833,2.38348450948,3.01946132234
6.10237061665,1.68349194859,1.85312871956,0.717284580438
-0.868955290927,1.47848204885,1.16277292964,2.62510783854
-1.0002811985,1.5834721491,0.872417139721,-0.207068903357
2.46839289393,-3.18153775064,-0.107938650201,-3.42924564525
2.61706698636,-4.23654765038,-1.29829444012,-3.42142238715
0.045741078784,0.558442449872,0.0913497699621,-1.63359912905
-0.705584828787,2.88343255013,0.250993980042,1.19422412906
0.773089263641,5.06842265039,2.33063819012,4.99204738716
-1.11823664393,6.58341275064,3.4302824002,5.19987064527
0.0504374484972,4.1584028509,0.859926610285,2.31769390337
1.90911154092,4.04339295115,-1.02042917963,2.85551716147
3.11778563335,4.88838305141,-2.54078496955,3.73334041957
3.12645972578,7.00337315167,-0.501140759474,5.14116367768
0.355133818211,1.70836325192,-1.21149654939,0.878986935779
-2.83619208936,-1.22664664782,-3.49185233931,-2.27318980612
-1.68751799693,-4.25165654756,-2.31220812923,-5.84536654802
0.821156095495,-0.166666447308,-1.59256391915,-7.48754328991
1.95983018792,-0.821676347052,-0.742919709071,-6.65972003181
3.97850428035,-2.5866862468,-1.52327549899,-2.39189677371
4.13717837278,-5.72169614654,-2.43363128891,-1.2840735156
0.015852465207,1.62329395372,-0.983987078829,1.1537497425
5.98452655764,-1.37171594603,-2.09434286875,-1.9284269994
3.44320065006,1.64327415423,1.23530134133,-0.900603741291
0.0318747424917,-1.23173574551,0.654945551414,-0.182780483188
0.66054883492,-1.36674564526,0.814589761494,-0.464957225086
0.0592229273479,1.738244455,0.184233971575,-0.0771339669845
0.557897019775,0.183234555256,-2.02612181834,-0.349310708883
3.5365711122,-3.50177534449,-2.62647760826,-2.82148745078
1.72524520463,-3.01678524423,-0.676833398184,-1.43366419267
4.73391929706,-6.62179514397,0.442810811897,-1.92584093457
6.43259338949,-1.12680504372,0.192455021979,0.961982323533
3.09126748192,2.55818505654,0.372099232058,1.92980558164
3.33994157434,3.57317515679,0.71174344214,3.06762883974
3.80861566677,2.20816525705,0.111387652219,4.59545209784
2.1172897592,-1.32684464269,-1.0089681377,-2.68672464406
-1.47403614837,-1.33185454244,-1.38932392762,-5.69890138595
-4.06536205594,-2.31686444218,-3.12967971754,-6.90107812785
-2.31668796352,-2.30187434192,-4.20003550746,-6.00325486975
-5.14801387109,-3.84688424167,-2.63039129738,-5.71543161164
-5.76933977866,-5.53189414141,-0.820747087297,-6.30760835354
-3.98066568623,-9.33690404116,-0.351102877215,-9.67978509544
-9.4919915938,-6.9319139409,2.66854133287,-7.35196183734
-10.2433175014,-2.25692384064,1.95818554295,-7.73413857923
-7.06464340895,-4.88193374039,0.297829753026,-8.88631532113
-8.78596931652,-5.71694364013,1.21747396311,-5.99849206302
-5.55729522409,-1.92195353987,1.10711817319,-1.57066880492
-3.65862113166,-1.00696343962,1.37676238327,-1.39284554682
-1.49994703924,1.53802666064,2.45640659335,-0.0450222887121
1.35872705319,1.5330167609,2.16605080343,1.59280096939
-2.23259885438,-0.621993138849,1.42569501351,-2.15937577251
-3.74392476195,0.222996961408,1.31533922359,-0.211552514407
-2.46525066952,0.107987061664,0.964983433672,0.866270743696
-2.1665765771,0.792977161921,-1.27537235625,0.444094001799
-1.04790248467,-3.14203273782,-1.65572814617,-4.9180827401
-2.17922839224,-0.287042637567,-0.506083936087,0.0697405180072
-2.65055429981,2.25794746269,0.833560273993,2.48756377611
-2.60188020738,2.72293756295,-0.216795515926,0.725387034214
-1.63320611496,3.0979276632,-1.37715130584,0.593210292314
-4.08453202253,-0.827082236541,-1.66750709576,1.74103355042
-0.7258579301,2.96790786372,-0.0378628856834,2.92885680852
1.78281616233,0.192897963971,-1.0782186756,2.45668006663
-1.94850974524,1.35788806423,0.531425534478,4.96450332473
-0.619835652813,5.10287816448,3.03106974456,7.05232658283
1.30883843961,5.18786826474,1.16071395464,7.05014984094
4.88751253204,-0.557141635003,0.0903581647199,1.55797309904
6.34618662447,-0.342151534746,0.800002374801,2.54579635714
7.2848607169,5.93283856551,1.44964658488,9.61361961524
6.71353480933,1.81782866576,0.779290794962,9.06144287335
5.15220890175,-3.88718123398,0.0489350050429,3.84926613145
6.28088299418,-3.91219113372,-0.871420784877,3.38708938955
16.076184593,13.5298837209,1.40422965116,15.0322165698
16.3525918731,13.3785875698,1.32541304248,16.7035227065
19.3889991531,13.2272914187,0.666596433797,18.9848288432
18.3754064331,12.8559952676,2.37777982512,15.8661349799
15.8418137132,10.7046991165,1.50896321644,16.3974411166
16.6682209932,12.9934029653,0.990146607759,17.6287472532
11.1846282732,10.6721068142,1.94132999908,12.3400533899
15.0710355532,11.9708106631,0.182513390399,12.3813595266
14.0274428333,12.109514512,1.35369678172,11.1826656633
13.8438501133,8.42821836088,2.17488017304,9.39397180004
14.0602573933,9.49692220976,0.74606356436,11.2052779367
11.2366646734,9.63562605865,0.75724695568,8.87658407343
12.9530719534,5.95432990753,-0.791569653,6.42789021013
14.7594792334,3.07303375641,-1.72038626168,4.27919634682
13.0958865135,1.53173760529,-1.79920287036,-0.279497516483
11.2122937935,2.95044145418,-0.498019479037,1.18180862021
12.2187010735,3.19914530306,0.833163912283,3.86311475691
9.50510835356,-0.402150848056,0.154347303604,1.94442089361
7.26151563359,-1.56344699917,0.00553069492344,3.37572703031
0.657922913617,-1.71474315029,1.40671408624,0.697033167002
1.92433019365,1.13396069859,0.517897477564,0.5883393037
-3.30926252632,-2.12733545253,1.04908086888,-3.19035455961
-5.12285524629,1.94136839636,3.2902642602,-1.59904842291
-10.0964479663,-5.56992775476,0.281447651525,-8.39774228621
-10.6200406862,-9.29122390588,-2.76736895716,-12.0864361495
-14.2836334062,-8.82252005699,-1.88618556583,-8.84513001282
-14.5172261262,-12.7738162081,-2.56500217452,-9.21382387612
-12.7608188461,-9.23511235923,-2.15381878319,-6.06251773942
-4.9444115661,-7.98640851034,-2.61263539187,-6.53121160273
-4.07800428607,-9.11770466146,-3.25145200055,-6.25990546603
-7.32159700604,-5.69900081258,-2.79026860923,2.32140067067
-8.47518972601,-3.15029696369,-0.969085217914,2.57270680736
-7.44878244598,-4.26159311481,-1.80790182659,-5.22598705594
-5.62237516595,-8.46288926593,-3.11671843527,-8.49468091924
-3.19596788592,-6.02418541705,-0.155535043952,-4.75337478255
-5.00956060589,0.604518431836,1.57564834737,0.587931354148
-3.81315332585,3.51322228072,2.00683173869,3.98923749085
-1.35674604582,4.9219261296,2.86801513001,5.78054362754
-2.26033876579,-1.55937002151,1.15919852133,3.97184976424
-3.13393148576,-4.77066617263,-0.819618087349,-1.10684409906
-7.94752420573,-6.65196232375,-0.56843469603,-1.61553796237
-7.0811169257,-5.90325847487,-0.147251304708,-1.45423182567
-2.39470964567,-5.21455462598,-0.256067913389,-1.97292568897
-1.05830236564,-1.9658507771,0.31511547793,-0.471619552278
-3.23189508561,-6.14714692822,0.926298869252,-7.13031341558
-4.94548780557,-1.17844307933,5.16748226057,-4.84900727888
-7.76908052554,0.100260769549,3.20866565189,-5.69770114219
-4.10267324551,-3.43103538157,1.47984904321,-8.23639500549
-10.0762659655,-6.57233153268,1.91103243453,-11.6550888688
-11.3598586855,-5.2736276838,0.622215825853,-13.0837827321
-8.70345140542,-3.81492383492,-0.256600782826,-11.7224765954
-8.37704412539,-6.87621998604,-1.69541739151,-11.0711704587
-9.52063684536,-4.61751613715,-2.73423400019,-8.00986432201
-10.5642295653,-8.54881228827,-2.86305060886,-9.96855818531
-12.0378222853,-8.14010843939,-2.43186721755,-9.74725204862
-14.8614150053,-9.2314045905,-1.61068382623,-9.72594591192
-13.3950077252,-8.09270074162,-1.7095004349,-11.5346397752
-16.2186004452,-10.6539968927,-0.118317043585,-13.8333336385
-17.4521931652,-10.5652930439,1.95286634774,-11.2120275018
-17.8657858851,-10.406589195,1.09404973906,-12.2607213651
-19.3693786051,-12.7978853461,0.545233130375,-17.2894152284
-18.9529713251,-8.91918149721,1.0664165217,-13.8281090917
-12.986564045,-12.7204776483,-3.61240008698,-17.196802955
-14.810156765,-12.9217737994,-4.72121669566,-17.4154968183
-14.903749485,-12.3330699506,-4.56003330434,-13.6341906816
-14.167342205,-12.4143661017,-5.18884991302,-12.402884545
-13.0409349249,-10.8456622528,-5.2476665217,-11.9315784083
-14.0445276449,-8.34695840391,-4.18648313038,-10.9102722716
-13.8081203649,-10.958254555,-3.77529973906,-12.8289661349
-11.9117130848,-11.1995507061,-2.73411634774,-15.7576599982
-8.3453058048,-7.73084685726,-1.83293295642,-9.60635386147
-4.59889852477,-0.642143008377,-0.1917495651,-4.70504772477
-2.23249124474,3.69656084051,1.29943382622,-1.93374158808
0.593916035295,8.39526468939,1.64061721754,5.97756454862
2.49032331532,10.6139685383,4.06180060886,8.28887068532
2.07673059536,7.68267238715,3.56298400018,3.99017682202
4.20313787539,7.09137623604,2.0541673915,5.20148295871
7.09954515542,10.2000800849,2.73535078282,10.0327890954
5.61595243545,9.4187839338,1.46653417414,7.64409523211
3.82235971548,8.59748778269,1.58771756546,4.9454013688
3.34876699551,4.50619163157,2.04890095678,1.2967075055
8.70517427554,6.94489548045,2.2800843481,5.0780136422
5.86158155557,5.23359932934,1.27126773942,8.0093197789
5.04798883561,0.342303178219,-0.687548869255,5.84062591559
3.56439611564,1.4610070271,-0.566365477936,4.52193205229
1.70080339567,4.20971087598,0.404817913386,1.98323818898
4.1972106757,6.29841472487,1.4460013047,4.79454432568
1.02361795573,8.50711857375,3.26718469603,6.02585046238
1.28002523576,6.16582242263,1.48836808735,4.50715659907
1.94643251579,3.60452627152,2.72955147867,4.50846273577
-1.30716020418,5.5432301204,3.94073486999,7.54976887246
0.499247075853,7.02193396928,3.53191826131,5.70107500916
1.94565435588,5.49063781816,2.51310165263,3.20238114586
-2.16793836408,2.55934166705,1.65428504395,2.08368728256
-1.62153108405,2.49804551593,0.675468435269,3.11499341925
-0.0651238040227,3.70674936481,-0.633348173411,3.71629955595
1.34128347601,2.9754532137,-1.53216478209,1.30760569265
2.11769075604,0.67415706258,-1.52098139077,-0.661088170655
2.37409803607,-0.547139088537,-4.39979799945,-0.569782033959
0.310505316103,-6.80843523965,-4.24861460813,-3.91847589726
-0.183087403868,-0.099731390771,-1.57743121681,-2.83716976057
1.06331987616,-1.48102754189,-2.12624782549,-3.80586362387
1.6997271562,-1.902323693,-1.78506443417,-2.34455748717
2.74613443623,-0.773619844122,-1.37388104285,-1.09325135048
8.57254171626,1.61508400476,-0.622697651528,-0.31194521378
7.87894899629,2.89378785364,-1.06151426021,1.90936092292
6.45535627632,2.34249170253,-0.710330868887,0.100667059614
8.42176355635,3.93119555141,-1.59914747757,-1.46802680369
7.53817083638,1.49989940029,-2.05796408625,1.19327933301
8.78457811641,1.96860324918,-2.20678069493,0.904585469703
10.7209853964,7.08730709806,0.154402696393,6.7658916064
10.9673926765,6.35601094694,1.10558608771,8.5071977431
13.9737999565,6.80471479583,1.65676947903,7.07850387979
12.5202072365,6.54341864471,1.16795287036,8.93981001649
8.75661451657,7.82212249359,1.69913626168,8.76111615319
11.3230217966,2.35082634247,0.920319652994,8.36242228989
11.4894290766,3.46953019136,2.52150304432,8.79372842658
6.45583635666,3.58823404024,3.09268643564,5.63503456328
1.35224363669,2.17693788912,2.58386982696,4.92634069997
0.588650916723,-1.19435826199,0.565053218275,3.40764683667
0.225058196755,2.85434558689,1.1562366096,5.32895297337
2.02146547678,4.09304943577,3.89742000092,6.74025911006
1.97787275682,1.77175328465,2.93860339224,8.46156524676
0.554280036848,-2.31954286646,0.339786783557,3.39287138346
0.440687316879,-3.43083901758,-0.429029825122,2.56417752015
-1.73290540309,-4.0321351687,-1.4778464338,-0.674516343148
0.96350187694,-4.50343131981,-3.69666304248,-1.43321020645
2.20990915697,-5.79472747093,-3.86547965116,-2.81190406976
9.16188226745,7.06910247093,2.28339026162,8.28016715116
14.2776154207,10.2729441151,4.47709548388,14.0045309067
14.403348574,11.7467857592,5.37080070613,16.7888946621
16.8390817273,11.1906274034,4.39450592839,11.7932584176
14.4848148805,12.8544690476,3.54821115065,14.8976221731
8.45054803379,5.38831069172,1.78191637291,9.68198592863
6.54628118706,-0.217847664117,1.13562159517,4.93634968412
5.00201434033,-0.904006019959,0.619326817425,3.01071343961
-0.642252506406,-2.0401643758,0.493032039682,-0.624922804895
1.84348064686,-0.0863227316413,0.986737261939,-1.2805590494
0.719213800132,-1.07248108748,-0.179557515801,-2.15619529391
0.754946953401,-3.98863944332,-1.11585229354,-3.05183153841
-0.60931989333,-3.74479779917,-0.0121470712875,-3.44746778292
1.46641325994,-2.06095615501,0.121558150971,-2.06310402742
3.74214641321,-2.47711451085,-1.33473662677,-2.42874027193
2.93787956647,-4.86327286669,-2.78103140451,-2.52437651644
-0.416387280256,-4.00943122253,-0.527326182255,-2.71001276094
-0.850654126987,-2.24558957837,0.866379040004,0.364350994547
2.81507902628,-0.141747934214,0.350084262262,-1.60128524996
5.67081217955,0.892093709945,0.403789484519,-1.18692149447
3.07654533282,4.0059353541,1.80749470678,1.26744226103
0.992278486086,1.81977699826,0.581199929036,0.631806016525
7.39801163935,-1.99638135758,-2.90509484871,0.246169772017
6.30374479262,-2.46253971342,-3.30138962645,-1.12946647249
3.81947794589,-0.938698069263,-2.53768440419,-1.865102717
3.85521109916,-4.9148564251,-4.19397918193,-3.4607389615
5.22094425243,-5.96101478095,-4.93027395968,-5.28637520601
7.1166774057,-4.11717313679,-4.20656873742,-2.67201145052
2.48241055897,-5.52333149263,-4.05286351516,-6.41764769502
-2.26185628777,-7.79948984847,-2.8391582929,-8.69328393953
-2.5261231345,-9.20564820431,-1.92545307064,-8.52892018404
-3.78038998123,-9.89180656015,-2.30174784839,-7.75455642854
-5.68465682796,-8.27796491599,-2.54804262613,-8.47019267305
-2.98892367469,-6.28412327184,-0.714337403871,-4.38582891756
-2.99319052142,0.399718372323,0.989367818387,-0.441465162061
-3.55745736815,0.783560016482,0.503073040647,0.532898593432
2.16827578511,2.73740166064,0.206778262904,4.92726234892
1.37400893838,4.4112433048,-0.149516514839,5.13162610442
0.149742091653,3.90508494896,-0.41581129258,3.59598985991
-2.96452475508,5.29892659312,-0.182106070322,2.61035361541
-3.92879160181,-1.82723176273,-1.81840084807,-2.8752826291
-7.86305844854,-2.11339011857,-1.41469562581,-4.47091887361
-9.36732529527,0.570451525591,1.49900959645,-3.10655511811
-7.58159214201,4.10429316975,2.46271481871,1.19780863738
-9.71585898874,3.39813481391,2.45642004097,1.68217239287
-9.56012583547,-1.22802354193,1.95012526323,-1.92346385164
-10.0943926822,-0.374181897774,1.30383048548,-3.55910009614
-9.15865952893,0.239659746385,1.12753570774,-3.72473634065
-12.4329263757,-0.566498609457,2.31124093,-6.79037258515
-12.7471932224,-0.112656965298,3.11494615226,-6.21600882966
-18.5214600691,-3.68881532114,3.94865137451,-4.95164507416
-17.4057269159,-3.18497367698,2.85235659677,-8.82728131867
-15.3499937626,-5.11113203282,-0.253938180969,-11.3829175632
-15.1042606093,1.56270961134,2.45976704129,-5.52855380769
-11.268527456,2.88655125549,3.46347226355,-0.264190052192
-5.57279430278,2.31039289965,3.3071774858,1.6101737033
-4.99706114951,5.44423454381,4.52088270806,4.2345374588
-5.09132799625,11.118076188,6.77458793032,7.46890121429
-4.50559484298,9.54191783213,5.85829315258,4.56326496978
-3.92986168971,8.49575947629,5.53199837484,2.47762872528
-5.32412853644,2.99960112045,3.45570359709,-0.508007519231
-3.02839538317,3.4934427646,2.84940881935,2.48635623626
-1.5026622299,4.34728440876,4.68311404161,1.76071999175
3.11307092337,4.24112605292,3.45681926387,2.26508374725
4.35880407664,0.244967697081,1.11052448612,1.13944750274
2.03453722991,0.0688093412391,-0.0457702916174,-1.50618874176
-2.52972961683,1.5726509854,0.157934930641,2.80817501373
-1.63399646356,0.976492629557,0.6316401529,4.65253876922
-3.29826331029,-1.38966572628,-1.02465462484,-2.70309747528
-3.83253015702,-4.31582408213,-2.97094940258,-3.93873371979
-6.09679700375,-2.25198243797,-4.21724418033,0.545630035704
-9.47106385048,-5.84814079381,-4.70353895807,-0.490006208802
-5.83533069722,-0.79429914965,-1.72983373581,2.40435754669
-0.229597543947,1.15954249451,-0.296128513553,4.94872130219
5.33613560932,7.26338413867,0.977576708705,9.79308505768
4.21186876259,-0.222774217175,-0.538718069038,5.96744881317
0.787601915859,-1.35893257302,-1.96501284678,4.05181256866
0.333335069128,-4.59509092886,-4.38130762452,-2.25382367584
-2.4609317776,-8.1012492847,-5.78760240226,-7.10945992035
-2.59519862434,-10.1474076405,-8.58389718001,-8.90509616485
-6.62946547107,-10.9035659964,-8.31019195775,-8.75073240936
-3.0737323178,-10.3897243522,-8.28648673549,-6.25636865386
-3.18799916453,-11.5458827081,-8.77278151323,-7.67200489837
-4.80226601126,-12.8120410639,-8.12907629097,-9.42764114288
-3.26653285799,-8.02819941975,-6.06537106872,-5.87327738739
-1.28079970472,-6.23435777559,-5.15166584646,-2.28891363189
-2.17506655146,-5.13051613143,-3.9579606242,-3.7645498764
-2.66933339819,-5.53667448727,-3.71425540194,-5.14018612091
-2.63360024492,-2.62283284311,-2.39055017968,-2.88582236541
2.53213290835,5.52100880105,-0.0868449574282,3.27854139008
7.88786606162,5.8348504452,-0.623139735169,1.74290514558
3.34359921489,3.44869208936,-0.689434512911,3.57726890107
3.67933236816,4.46253373352,0.0742707093468,3.16163265656
7.56506552142,4.01637537768,0.137975931604,2.10599641206
9.37079867469,1.72021702184,0.861681153863,2.46036016755
9.94653182796,5.304058666,1.53538637612,5.06472392304
2.95226498123,8.40790031016,1.48909159838,4.25908767854
3.9979981345,8.48174195431,2.63279682064,2.08345143403
8.41373128777,11.1055835985,1.96650204289,4.17781518953
6.75946444104,4.73942524263,-0.0897927348487,1.73217894502
5.4551975943,1.92326688679,1.29391248741,1.12654270051
3.94093074757,-0.122891469052,0.807617709668,-1.439093544
3.97666390084,-3.02904982489,-0.998677068075,-3.0547297885
2.79239705411,2.89479181927,0.765028154183,0.119633966991
2.93813020738,1.69863346342,-0.371266623559,0.463997722483
-1.57613663935,-5.02752489242,-1.5975614013,-3.70163852202
-3.95040348608,-6.32368324826,-2.40385617904,-5.51727476653
-3.23467033281,-1.3498416041,-1.93015095678,-4.22291101103
0.581062820453,2.76400004006,-0.876445734526,0.51145274446
4.73679597372,0.0178416842173,-0.342740512269,1.72581649995
4.66252912699,-3.59831667162,-1.45903529001,1.66018025545
6.64826228026,-3.01447502747,-1.65533006775,-2.17545598906
3.62399543353,-1.89063338331,-2.2316248455,-2.20109223357
4.0697285868,-3.98679173915,-3.59791962324,-2.81672847808
3.46546174006,-3.93295009499,-3.50421440098,-0.342364722583
0.891194893335,-3.88910845083,-0.370509178721,-0.208000967086
4.2169280466,-1.82526680667,0.993196043535,1.72636278841
5.69266119987,-0.681425162515,1.16690126579,3.7107265439
2.10839435314,-1.59758351836,-1.21939351195,0.685090299394
0.514127506407,2.8762581258,1.35431171031,2.10945405489
3.59986065968,1.32009976996,2.22801693257,3.57381781038
0.0855938129444,2.46394141412,3.59172215483,1.62818156587
-1.38867303379,2.55778305828,5.80542737708,1.86254532137
-0.592939880518,8.39162470244,6.23913259934,9.03690907686
-0.257206727249,4.8254663466,6.1028378216,9.05127283236
2.92852642602,2.79930799075,6.05654304386,5.12563658785
3.68425957929,5.19314963491,6.15024826612,4.99000034334
1.71999273256,4.34699127907,7.27395348837,-0.555635901164
-5.45667151162,6.9687318314,5.49214389535,0.820995639533
-4.40203642876,4.18872965689,5.66336136353,4.08554196804
-4.0174013459,4.60872748238,5.70457883171,8.31008829655
0.957233736957,7.39872530787,5.2057962999,9.87463462506
2.14186881982,9.10872313336,4.05701376808,10.1591809536
6.21650390268,9.21872095885,3.33823123626,7.70372728209
5.12113898554,2.08871878434,1.18944870445,5.0682736106
2.0457740684,0.498716609827,2.41066617263,0.86281993911
-2.50959084874,-2.59128556468,1.80188364082,-3.54263373238
-7.71495576588,-1.73128773919,1.793101109,-5.99808740387
-5.94032068302,-3.7412899137,-0.445681422818,-10.4035410754
-2.45568560016,-1.47129208821,1.19553604537,-7.74899474685
-4.1710505173,-1.67129426272,1.07675351355,-3.58444841834
-0.676415434442,-1.34129643723,0.427970981733,-2.98990208982
0.218219648419,1.57870138826,2.87918844992,-3.12535576131
-3.77714526872,-1.69130078625,1.2604059181,-4.7808094328
-2.14251018586,0.518697039235,-2.25837661372,-3.70626310429
2.362124897,-2.86130513527,-2.48715914553,-3.73171677578
0.97675997986,-3.47130730978,-1.95594167735,-1.80717044726
-1.38860493728,-1.48130948429,-0.504724209164,-0.372624118754
-0.783969854419,-3.23131165881,-2.45350674098,-2.11807779024
-0.709334771558,-3.30131383332,-2.4622892728,-4.47353146173
-5.5746996887,-1.21131600783,0.988928195386,-2.54898513322
-4.03006460584,0.0786818176639,1.50014566357,1.16556119529
-2.16542952298,1.05867964315,0.911363131752,2.6801075238
-4.62079444012,3.84867746864,1.42258059994,5.02465385231
-2.09615935726,1.29867529413,0.343798068119,0.269200180825
-3.0515242744,-2.06132688038,0.825015536304,-1.99625349066
-7.08688919154,-1.75132905489,0.996233004485,-0.901707162153
-4.42225410868,-5.2413312294,-0.412549527329,-3.78716083364
-4.08761902582,-4.58133340391,-0.151332059146,-6.78261450513
-1.02298394296,-3.91133557842,-1.61011459096,-3.04806817662
-1.8883488601,-4.07133775293,-1.57889712278,-0.453521848107
0.246286222764,-4.70133992744,-2.2976796546,-0.628975519598
2.35092130562,-0.931342101949,-2.43646218641,-0.474429191083
3.40555638848,-0.731344276459,-1.10524471823,-0.929882862572
6.80019147134,0.868653549031,0.125972749955,2.09466346594
7.7748265542,3.20865137452,1.45719021814,8.05920979445
9.17946163706,5.48864920001,1.84840768632,8.17375612296
8.49409671993,1.4186470255,2.24962515451,4.45830245148
6.19873180278,4.31864485099,1.73084262269,5.37284877999
3.56336688564,7.54864267648,2.81206009087,8.2773951085
-0.651998031495,8.14864050197,2.67327755906,7.99194143701
0.292637051367,8.32863832746,2.42449502724,8.61648776552
0.0272721342262,8.98863615295,2.28571249542,9.01103409403
2.58190721709,6.30863397844,1.55692996361,5.54558042254
5.44654229995,6.14863180393,1.10814743179,9.30012675106
3.37117738281,7.61862962942,2.88936489997,9.81467307956
3.39581246567,6.86862745491,3.37058236816,10.4392194081
5.52044754853,0.478625280399,-0.388200163658,6.61376573659
3.20508263139,-1.99137689411,-0.956982695476,1.6383120651
-3.21028228575,-1.16137906862,-0.915765227292,-0.757141606391
-5.07564720289,-5.37138124313,-1.50454775911,-1.25259527788
-5.72101212003,-1.58138341764,0.886669709076,-2.16804894937
-6.96637703717,-4.22138559215,0.65788717726,-4.11350262086
-2.27174195431,-4.72138776666,0.559104645443,-6.99895629234
-1.14710687145,-5.64138994117,-0.139677886375,-5.41440996384
-0.432471788592,-1.15139211568,0.50153958181,1.34013636468
0.532163294269,-2.72139429019,0.922757049993,-2.10531730681
3.17679837713,-3.7113964647,-1.23602548182,-5.5507709783
2.56143345999,-3.35139863921,-2.58480801364,-3.51622464979
3.74606854285,-1.14140081372,-1.15359054546,-0.501678321278
7.26070362571,-3.63140298823,-0.542373077273,-3.87713199277
5.81533870857,-3.30140516274,-1.28115560909,-5.48258566425
2.83997379143,-2.95140733725,-1.26993814091,-4.05803933574
3.76460887429,-3.29140951176,-3.74872067272,-5.86349300723
3.58924395715,-7.96141168627,-4.36750320454,-8.52894667872
0.57387904001,-7.72141386079,-4.92628573636,-7.23440035021
-0.42148587713,-10.3014160353,-8.01506826817,-5.3498540217
-0.79685079427,-10.1014182098,-9.61385079999,-5.28530769318
-2.29221571141,-9.21142038432,-6.2926333318,-5.33076136468
-0.947580628548,-7.94142255883,-5.06141586362,-7.45621503616
2.65705445431,-8.84142473334,-5.41019839544,-5.94166870765
1.79168953717,-4.91142690785,-2.50898092725,-3.29712237914
-0.593675379967,-2.41142908236,-3.04776345907,-4.28257605063
-2.62904029711,-5.23143125687,-5.02654599089,-7.27802972212
-2.59440521425,-2.38143343138,-5.1653285227,-4.3934833936
-1.94977013139,-2.52143560589,-3.07411105452,-2.1689370651
-0.425135048528,-4.1114377804,-2.40289358634,-2.00439073658
-0.570499965666,-4.81143995491,-2.84167611815,-4.75984440807
-3.85586488281,-2.55144212942,-1.84045864997,-3.15529807956
0.348770200055,1.66855569607,-2.01924118179,0.109248248951
4.56340528292,-4.28144647844,-5.6080237136,-2.39620542254
4.94804036577,-3.42144865295,-6.59680624542,-3.89165909402
8.43267544863,-1.32145082746,-5.88558877723,-0.847112765514
5.88731053149,3.31854699803,-5.49437130905,1.137433563
4.98194561436,1.28854482352,-4.73315384087,-0.478020108494
0.826580697216,-1.85145735099,-4.23193637268,-6.73347377998
-1.75878421992,-1.7014595255,-4.5907189045,-5.90892745147
-1.13414913707,1.62853829999,-3.76950143632,-3.11438112296
1.1504859458,1.26853612548,-3.99828396813,-0.0998347944442
1.29512102866,0.63853395097,-2.48706649995,0.734711534064
1.82975611152,-3.19146822354,-2.47584903177,-3.54074213742
-3.50560880562,-0.401470398051,-1.56463156358,-0.676195808912
-5.15097372276,0.848527427439,-1.1034140954,-1.6216494804
-5.1963386399,-0.191474747071,-0.102196627215,-3.71710315189
-2.48170355704,0.138523078419,-1.60097915903,-4.75255682338
-4.33706847418,-2.21147909609,-0.469761690849,-3.31801049487
-5.54243339132,-0.401481270602,1.02145577734,-3.07346416635
-1.05779830846,1.08851655489,0.962673245518,-1.75891783784
0.776836774397,6.17851438038,0.823890713704,3.85562849067
-0.428528142742,7.26851220587,0.755108181886,7.43017481918
0.176106940118,5.65851003136,-0.43367434993,5.43472114769
1.39074202298,7.50850785685,2.07754311825,6.3792674762
3.94537710584,9.48850568234,2.49876058644,8.65381380471
2.5600121887,10.8485035078,4.43997805462,10.1783601332
3.01464727156,13.2385013333,2.66119552281,12.4729064617
4.26928235442,6.09849915881,0.202412990988,11.7374527902
6.40391743728,5.4484969843,1.47363045917,11.0419991188
7.38855252014,5.30849480979,2.22484792735,10.2865454473
5.653187603,3.76849263528,1.99606539554,6.93109177578
5.71782268586,-0.781509539234,1.24728286372,1.20563810429
6.10245776872,4.51848828625,1.39850033191,4.0201844328
3.11709285158,1.04848611175,0.499717800089,2.54473076132
1.08172793444,6.73848393724,3.35093526827,8.37927708983
0.936363017301,8.31848176273,3.95215273646,8.46382341834
3.62099810016,11.6884795882,8.66337020464,10.2283697468
2.59563318302,2.6084774137,7.37458767282,4.62291607536
-0.219731734118,8.55847523919,7.68580514101,5.87746240387
-2.62509665126,3.91847306468,3.80702260919,2.25200873238
-2.7504615684,-4.28152910983,1.76824007737,-2.5134449391
-8.15582648554,-7.17153128434,2.18945754556,-5.01889861059
-8.62119140268,-6.48153345885,4.28067501374,-4.61435228208
-9.66655631982,-8.07153563336,4.59189248193,-9.68980595357
-9.33192123696,-1.15153780787,5.05310995011,-5.62525962506
-9.2372861541,-7.88153998238,2.25432741829,-7.70071329655
-7.73265107124,-5.83154215689,4.61554488647,-8.30616696804
-5.53801598838,-8.9415443314,0.22676235466,-9.29162063953
10.0131140988,0.744683866282,-4.6722747093,5.48602834302
10.2730170756,1.82275725028,-1.90829449735,5.55662730612
9.43292005242,-7.60916936573,-3.86431428539,0.0472262692201
7.62282302921,3.03890401827,-4.09033407343,4.73782523233
8.652726006,-8.36302259774,-6.60635386147,4.04842419543
8.02262898279,-5.31494921374,-7.17237364952,6.31902315853
5.52253195958,23.0331241703,-1.07839343756,5.64962212163
8.03243493637,3.41119755425,-4.5944132256,3.59022108473
6.76233791316,-5.59072906175,-5.35043301365,2.35082004783
3.31224088995,-12.2726556778,-7.81645280169,-11.8885809891
5.02214386674,-11.7245822938,-9.30247258973,-6.88798202596
1.37204684353,-11.0765089098,-7.96849237777,-5.54738306286
1.80194982032,-11.4284355258,-7.03451216582,-8.29678409976
1.42185279711,-7.31036214177,-5.73053195386,-7.92618513666
3.1917557739,-1.76228875778,-4.0365517419,1.21441382644
2.16165875069,-4.17421537378,-1.63257152994,0.635012789549
3.37156172748,-1.62614198979,-0.118591317985,1.29561175265
3.64146470427,0.801931394207,0.365388893973,6.18621071575
3.93136768106,0.760004778203,1.84936910593,7.70680967886
3.27127065785,-17.0519218378,-2.98665068211,5.39740864196
-2.42882636536,4.56615154619,-0.442670470155,-0.101992394939
-1.82892338857,5.21422493019,1.2213097418,-1.58139343184
-3.87902041178,2.61229831418,1.25528995376,1.04920553126
-4.52911743499,-0.17962830182,0.619270165718,-2.10019550563
-6.9192144582,-5.70155491782,0.393250377676,-6.25959654253
-10.1793114814,-2.67348153383,1.74723058963,-0.788997579428
-10.1994085046,6.58459185017,3.57121080159,1.93160138367
-6.14950552783,3.41266523416,4.14519101355,1.32220034677
-3.06960255104,-3.12926138184,4.4691712255,1.05279930988
-5.31969957425,-4.31118799785,3.29315143746,-1.18660172702
-6.00979659746,-5.71311461385,1.38713164942,-5.12600276392
-6.05989362067,-3.14504122986,1.42111186138,-2.37540380082
-4.64999064388,-3.26696784586,2.21509207334,-1.15480483771
-2.88008766709,-0.738894461864,1.42907228529,0.69579412539
-2.4501846903,-0.350821077868,1.53305249725,1.81639308849
-4.13028171351,0.187252306127,0.987032709209,1.09699205159
0.749621263276,-0.304674309877,1.60101292116,-3.62240898531
3.40952424007,7.19339907412,4.07499313312,1.2481899778
-0.500572783143,4.27147245811,1.75897334508,-0.1912110591
-3.07066980635,0.249545842109,0.252953557039,1.949387904
-0.250766829564,2.4176192261,1.296933769,-0.440013132895
-2.42086385277,3.1156926101,2.05091398095,3.09058583021
-4.11096087598,4.1037659941,3.02489419291,1.02118479331
-1.54105789919,3.71183937809,2.67887440487,3.26178375641
-4.3411549224,-1.32008723791,1.93285461683,-0.637617280488
-7.46125194562,0.227986146083,3.53683482878,-0.617018317385
-5.94134896882,4.81605953008,3.95081504074,2.64358064572
-6.77144599204,3.16413291407,2.1047952527,2.12417960882
-4.95154301525,-8.73779370193,-1.10122453534,1.16477857192
-7.32164003846,8.43027968207,0.522755676613,-3.71462246498
-6.29173706167,5.92835306606,1.56673588857,-0.524023501875
-6.76183408487,6.31642645006,1.20071610053,-1.89342453878
-5.75193110809,5.51449983405,0.764696312486,-1.76282557567
-1.55202813129,12.742573218,1.86867652444,3.21777338743
2.8778748455,14.620646602,3.2526567364,7.01837235053
4.35777782228,9.54871998604,5.13663694836,8.55897131364
3.97768079907,7.78679337003,7.39061716032,4.41957027674
1.09758377587,11.774866754,8.14459737227,6.36016923984
-0.692513247346,3.95294013803,5.44857758423,0.0307682029415
1.72738972944,11.761013522,8.66255779619,5.59136716605
4.33729270623,18.739086906,12.2965380081,7.22196612915
5.23719568302,2.64716029001,0.730518220103,0.96256509225
4.65709865981,-2.59476632599,1.65449843206,-1.43683594465
-0.232998363397,3.803307058,2.02847864402,1.24376301845
-3.79309538661,0.761380441999,1.33245885598,-1.13563801844
-0.703192409817,0.989453825994,2.56643906793,-3.68503905534
0.396710566974,0.68752720999,3.16041927989,-2.79444009224
-2.37338645623,-1.81439940601,1.81439949185,-4.29384112914
-2.30348347945,-1.16632602202,-0.341620296193,-4.23324216604
-0.763580502655,-3.09825263802,-1.82764008424,-1.95264320293
1.18632247413,-1.78017925403,-0.803659872279,-2.16204423983
0.936225450923,3.43789412997,2.00032033968,-0.221445276729
-1.67387157229,-2.17403248604,2.91430055164,-3.77084631363
3.0160314045,-6.77595910204,-0.831719236405,-5.77024735052
3.66593438129,-6.31788571805,0.952260975553,-8.55964838742
-0.974162641916,-3.07981233405,0.62624118751,-7.71904942432
2.10574033487,-4.34173895005,1.06022139947,-5.84845046122
2.46564331166,-4.92366556606,-0.375798388575,-7.20785149812
1.57554628845,-8.93559218206,-2.93181817662,-10.967252535
-2.20455073476,-3.85751879807,0.302162035339,-7.21665357192
-5.84464775797,-8.03944541407,-1.8538577527,-9.07605460881
-3.71474478118,-4.28137203008,0.910122459254,-7.20545564571
1.73515819561,1.76670135392,1.21410267121,-3.9848566826
-0.0449388275956,-0.0652252620848,-0.471917116831,-4.4842577195
-0.425035850807,-3.52715187809,-3.34793690487,-3.0136587564
-2.14513287402,-2.48907849409,-2.25395669292,-6.6630597933
-4.17522989723,1.1589948899,-0.429976480958,-5.3424608302
-6.41532692044,1.4770682739,2.464003731,-2.7318618671
-0.415423943647,4.76514165789,2.04798394296,-0.501262903992
-0.685520966857,5.57321504189,2.20196415491,0.899336059112
-1.62561799007,3.88128842588,1.78594436687,1.56993502221
2.58428498672,1.57936180988,-0.72007542117,0.360533985313
3.99418796351,-5.72256480612,-1.00609520921,-0.0488670515842
-3.9159090597,18.1955085779,5.53788500274,4.37173191152
-2.73600608291,6.69358196187,2.2918652147,3.16233087462
-4.05610310612,-3.78834465414,1.36584542666,-2.98707016227
-4.38620012933,-0.880271270143,3.11982563862,1.05352880083
-2.90629715254,7.12780211385,3.13380585057,5.48412776393
0.823605824253,3.28587549785,1.22778606253,4.13472672703
0.363508801043,-0.236051118157,0.391766274488,2.79532569013
0.073411777832,-2.71797773416,-3.01425351355,1.77592465323
-2.92668524538,1.49009564983,-2.5802733016,1.44652361633
-5.42678226859,11.2581690338,0.543706910363,4.58712257944
-5.7568792918,9.29624241783,5.89768712232,5.65772154254
-7.43697631501,-1.71568419818,-2.13833266572,-3.26167949436
-7.29707333822,-1.46761081418,-1.47435245377,0.448919468745
-4.47717036143,-4.51953743019,-2.38037224181,2.31951843185
-2.77726738464,-3.55146404619,-2.07639202985,2.29011739495
-0.897364407849,-1.4233906622,0.0575881821078,2.94071635805
0.132538568942,-1.4653172782,-0.198431605935,5.57131532115
2.54244154573,-5.8472438942,-1.32445139398,4.20191428425
3.46234452252,-4.51917051021,0.99952881798,5.56251324736
8.09224749931,-9.19109712621,-1.85649097006,4.87311221046
5.4121504761,-8.55302374222,-5.7925107581,1.69371117356
2.95205345289,-6.63495035822,-5.30853054615,-3.07568986334
3.42195642968,-1.81687697423,-2.63455033419,-1.33509090024
0.761859406472,-2.32880359023,-2.38057012223,2.50550806287
4.99176238326,-10.6807302062,-6.58658991027,-1.92389297403
6.83166536005,-4.60265682224,-3.74260969832,5.42670598907
6.80156833684,-0.0545834382447,-0.398629486359,5.30730495217
7.19147131363,-3.38651005425,-1.7946492744,2.06790391527
4.89137429042,8.33156332975,-3.27066906245,2.71850287838
2.76127726721,-3.76036328626,-2.90668885049,-0.93089815852
4.781180244,0.207710097738,-3.51270863853,1.67970080458
3.19108322079,-2.60421651827,-3.85872842657,-1.62970023231
2.21098619758,-0.966143134271,-4.56474821462,-2.08910126921
5.21088917437,0.711930249724,-3.63076800266,-3.29850230611
6.10079215116,0.87000363372,-0.626787790699,-0.0379033430072
9.15970011996,6.71163134746,-1.62912834867,4.66619352257
3.81681522433,7.7133927586,-3.80026861983,-2.65097970732
10.7539303287,5.07515416974,-1.141408891,4.34184706281
