1.1632267442,9.09044694769,3.50299418604,4.11702761628
2.42221013209,8.28640570638,3.84317218114,4.27971960264
-5.35880648003,9.83236446508,3.61335017624,2.502411589
-3.11982309214,5.63832322378,1.87352817135,-1.31489642465
-3.77083970425,1.86428198248,-0.636293833555,-4.84220443829
-13.9818563164,-2.90975925883,0.0638841615473,-9.36951245193
-19.0528729285,-4.29380050013,0.704062156652,-12.1968204656
-11.9938895406,-4.01784174143,-2.01575984825,-10.7441284792
-14.9449061527,0.838117017265,0.324418146851,-7.85143649286
-16.9959227648,-1.18592422403,4.31459614195,-6.9287445065
-12.4569393769,-3.36996546533,4.70477413706,-4.75605252014
-9.81795598905,2.46599329336,5.89495213216,-0.253360533784
-5.61897260117,7.21195205206,7.18513012726,6.40933145257
-6.50998921327,9.71791081076,6.11530812236,6.26202343893
-6.37100582539,6.69386956946,4.89548611746,5.75471542529
-7.20202243749,5.30982832815,6.02566411257,6.43740741165
-10.8930390496,8.68578708685,4.25584210767,6.53009939801
5.78594433827,10.1717458456,6.40602010277,12.5227913844
-3.42507227384,6.79770460425,4.00619809787,5.49548337072
-5.76608888595,5.55366336295,1.66637609297,-0.381824642922
-7.42710549807,-2.19037787835,-1.56344591192,1.84086734344
-2.56812211018,-5.14441911966,-3.20326791683,-2.37644067021
-2.0291387223,1.06153963903,-2.63308992172,0.716251316152
2.4998446656,-2.93250160226,-3.07291192662,0.33894330251
0.578828053483,-4.96654284356,-3.44273393152,-2.12836471113
-3.41218855864,-14.9505840849,-8.64255593642,-9.68567272478
3.06679482925,-11.7446253262,-9.59237794131,-7.44298073842
-3.39422178286,-4.78866656747,-5.51219994621,-5.22028875206
-4.93523839497,-3.49270780877,-7.24202195111,-5.2575967657
-3.05625500709,-5.17674905008,-8.77184395601,-5.60490477934
-5.1572716192,-5.49079029138,-8.36166596091,-4.17221279299
-1.24828823131,-3.22483153268,-7.79148796581,-4.40952080663
-3.00930484343,-1.51887277399,-6.44130997071,-4.71682882027
-0.280321455539,2.32708598472,-5.56113197561,-0.704136833913
8.85866193235,2.85304474342,-3.8309539805,3.94855515245
-3.39235467977,-5.19099649788,-5.7807759854,-0.198752861197
2.51662870812,0.824962260805,-6.6205979903,1.83393912516
5.77561209601,5.2809210195,-3.3504199952,3.31663111152
-2.8654045161,4.63687977821,-0.830242000095,0.599323097876
10.9835788718,6.6128385369,-2.61006400499,4.34201508423
5.84256225967,3.4287972956,-2.97988600989,3.58470707059
7.50154564755,4.9947560543,-1.95970801479,7.41739905695
15.2105290354,9.540714813,0.330469980312,11.4000910433
14.2295124233,10.0066735717,-0.759352024586,8.88278302967
12.1984958112,3.02263233039,-3.42917402948,5.89547501602
9.8074791991,-3.68140891091,-4.41899603438,1.64816700238
3.61646258699,-7.67545015222,-6.88881803928,-5.84914101126
6.03544597488,-1.29949139351,-6.07864004418,3.1835509751
10.2744293628,4.05646736518,-2.37846204908,10.3862429615
12.8034127506,-0.527573876112,-2.47828405397,8.40893494781
9.70239613853,-1.99161511742,-0.858106058873,7.38162693417
9.63137952642,0.804343641277,1.72207193623,9.56431892053
8.7403629143,6.60030239998,2.91224993133,12.2770109069
11.7293463022,5.21626115867,1.96242792643,5.59970289324
12.3383296901,-3.95778008263,0.682605921535,0.6823948796
10.377313078,-6.12182132393,-2.50721608336,-1.87491313404
6.07629646586,-6.42586256523,-5.15703808827,-3.25222114768
9.61527985374,-2.06990380654,-0.736860093162,-0.699529161327
6.15426324162,-9.39394504784,-2.20668209806,-3.04683717497
6.71324662952,-7.05798628914,-1.20650410296,-3.61414518861
4.7922300174,-6.31202753045,-0.866326107858,-2.42145320225
1.17121340529,-12.5660687717,-2.26614811275,-6.6187612159
-0.619803206828,-10.590110013,-2.60597011765,-11.4660692295
0.20918018106,-6.68415125435,-0.0457921225534,-7.56337724318
4.16816356895,-5.01819249565,0.474385872552,-7.23068525682
-2.25285304316,-13.6622337369,-0.725436132347,-12.9379932705
0.436130344715,-9.23627497825,4.05474186275,-7.39530128411
8.10511373261,6.06968378044,6.43491985786,1.75739070225
6.1540971205,-0.144357460857,3.60509785296,0.760082688609
8.19308050838,-4.22839870216,2.96527584806,1.16277467497
7.70206389627,-2.19243994346,5.25545384316,4.95546666132
11.4610472842,6.33351881523,5.62563183826,7.10815864768
11.900030672,6.62947757394,4.36580983336,5.68085063404
12.4590140599,3.59543633264,3.29598782847,3.0535426204
7.87799744782,-1.73860490867,2.68616582357,1.82623460675
4.9069808357,-4.26264614997,3.02634381867,-2.41107340689
2.94596422359,0.72331260873,4.71652181377,1.71161857947
3.68494761147,0.359271367422,5.39669980887,1.66431056583
4.33393099936,1.52523012612,5.69687780398,1.80700255219
-5.47708561275,3.79118888482,4.07705579908,1.05969453854
-5.45810222487,-8.95285235648,3.39723379418,-2.9176134751
-4.28911883698,-0.916893597787,3.96741178928,-1.79492148874
2.07986455091,0.559065160916,4.93758978438,3.06777049762
-5.23115206121,-5.21497608039,4.99776777949,-4.20953751602
-2.72216867332,-7.60901732169,3.25794577459,-3.33684552967
-4.04318528543,-7.89305856299,2.57812376969,-1.13415354331
-2.41420189755,-4.5970998043,6.47830176479,-1.89146155695
5.72478149035,2.53885895441,7.66847975989,3.30123042941
6.46376487823,5.2548177131,6.76865775499,6.03392241576
5.28274826612,1.5007764718,6.93883575009,3.44661440212
1.591731654,-3.3032647695,4.4190137452,-0.17069361152
5.32071504189,-1.48730601081,1.6791917403,0.711998374837
8.69969842978,-0.491347252108,2.0493697354,2.0646903612
5.99868181767,-0.245388493408,0.629547730499,2.19738234755
7.13766520555,-6.91942973471,-0.650274274398,-1.83992566609
-1.37335140657,-10.403470976,-9.62792983046e-05,-4.04723367973
-7.43436801868,-9.85751221731,0.240081715805,-6.69454169337
-2.96538463078,-3.39155345862,2.15025971091,-3.94184970702
-4.50640124291,2.13440530008,3.37043770601,-1.09915772066
-4.79741785502,-4.27963594122,-1.55938429889,-5.1064657343
-0.458434467131,-9.16367718252,-2.46920630379,-6.29377374794
-0.0794510792402,-5.44771842382,-2.25902830869,-4.67108176158
-2.56046769136,0.328240334871,-2.51885031358,-1.13838977523
-1.55148430348,-0.635800906428,-1.55867231848,-3.47569778887
-3.81250091558,-2.22984214773,-0.168494323378,-4.31300580251
-1.1035175277,-3.50388338904,0.0216836717191,-3.26031381615
-2.77453413981,0.772075369663,1.55186166682,-0.257621829796
-4.65555075193,7.61803412836,4.65203966193,5.40507015656
-0.786567364041,10.6839928871,4.93221765702,7.32776214292
-0.787583976147,5.25995164576,2.59239565213,3.92045412928
-2.30860058827,3.36591040446,1.55257364723,1.06314611563
-6.12961720037,-0.918130836842,1.40275164233,-5.12416189801
-5.95063381249,9.20782792185,1.84292963743,1.27853008835
-10.0616504246,12.6837866806,-0.536892367465,4.12122207471
-8.42266703671,9.06974543925,-1.17671437236,1.47391406107
-13.8136836488,6.23570419794,0.663463622739,2.05660604742
-7.73470026094,8.23166295664,3.06364161784,5.84929803378
-5.60571687306,6.35762171534,0.483819612946,3.50199002014
-10.6867334852,6.09358047404,-4.24600239196,-1.2753179935
-6.99775009728,4.82953923273,-5.32582439685,-1.53262600715
-6.13876670939,-0.934502008568,-5.02564640175,-1.81993402079
-5.95978332152,-0.898543249867,-4.49546840665,-4.89724203443
-5.40079993362,6.65741550882,-3.97529041155,-0.484550048071
-0.771816545734,3.33337426752,-6.08511241645,3.02814193829
-8.42283315785,0.459333026229,-6.21493442135,-3.55916607536
-6.33384976996,-5.41470821507,-8.39475642625,-4.196474089
-3.16486638208,-0.488749456381,-7.21457843114,1.84621789736
5.06411700581,6.99720930232,-5.03440043604,3.61890988372
-7.55040334303,-3.74857558138,-2.15972747093,-7.67994186046
-11.6200684971,-3.83255716672,-0.599266703677,-7.18551733313
-11.3697336511,-10.0465387521,-3.02880593641,-5.8910928058
-7.04939880517,-5.25052033739,-3.13834516915,-4.71666827847
-4.64906395922,-2.52450192271,-2.4678844019,-3.33224375114
-2.16872911326,-6.97848350804,-3.69742363464,-5.60781922381
-8.99839426731,-3.76246509339,-2.96696286738,-5.01339469648
-4.11805942136,-8.88644667871,-2.62650210012,-4.29897016915
4.96227542459,3.88957173596,2.44395866714,5.87545435818
4.31261027055,6.50559015062,3.9044194344,6.79987888551
3.3429451165,11.6816085653,3.05488020166,7.47430341284
7.81327996246,4.18762697995,0.545340968914,6.76872794017
13.2936148084,3.67364539462,0.505801736173,7.3931524675
11.4939496544,8.15966380929,1.93626250343,11.7175769948
10.7142845003,10.455682224,2.27672327069,11.5420015222
11.5646193463,13.1117006386,2.24718403795,14.5164260495
12.0149541922,8.54771905329,2.24764480521,12.7808505768
14.4752890382,8.60373746796,4.63810557247,13.1252751041
7.17562388413,11.7297558826,6.40856633972,14.2396996315
11.5159587301,12.7057742973,4.84902710699,14.4041241588
7.25629357603,11.451792712,3.94948787424,8.63854868614
7.90662842198,5.67781112663,5.0299486415,4.31297321347
10.7969632679,-0.826170458698,3.30040940876,3.9573977408
5.56729811389,1.97984795597,1.20087017602,3.00182226813
3.96763295984,7.45586637064,0.871330943279,4.74624679546
6.0479678058,3.0218847853,-0.158208289464,0.96067132279
0.488302651749,-3.84209680003,-1.1677475222,-2.54490414988
0.718637497703,-5.30607838537,-0.517286754945,-3.03047962255
-3.37102765634,-2.11005997069,2.19317401231,-3.36605509522
0.169307189608,-4.99404155603,0.0636347795735,-2.11163056789
-0.630357964437,-2.85802314137,-0.755904453166,-2.70720604056
2.43997688151,-6.62200472669,-0.0454436859109,-4.13278151323
-2.84968827253,-8.09598631202,-0.894982918649,-8.1483569859
-5.01935342658,-3.18996789736,-0.044522151391,-6.53393245857
-2.92901858062,7.82605051731,3.19593861587,2.97049206876
3.19131626533,0.0920689319755,0.606399383127,-0.515083403909
6.97165111129,0.258087346643,1.90686015039,-1.47065887658
1.86198595724,0.904105761314,1.83732091764,0.433765650752
2.09232080319,0.85012417598,1.2577816849,2.53819017808
-3.68734435086,4.37614259064,3.97824245216,2.88261470541
-7.5570095049,0.822161005315,1.78870321942,-1.76296076726
-0.126674658954,-2.47182058002,-0.640836013321,-1.88853623993
-5.72633981301,-13.8558021653,-2.77037524606,-8.1441117126
-5.63600496705,-7.52978375068,-2.5199144788,-6.74968718527
-2.2156701211,-5.00376533602,-1.82945371155,-3.32526265794
-7.57533527514,-2.35774692135,-0.508992944284,-7.01083813061
-7.74500042919,-4.77172850668,-2.44853217703,-7.23641360328
-11.0246655832,-8.75571009201,-2.11807140977,-8.52198907595
-5.85433073729,-10.9996916773,-0.727610642509,-7.48756454862
-2.77399589133,-5.28367326268,0.05285012475,-2.72314002129
-6.78366104538,-0.857654848012,-1.66668910799,-2.58871549396
-3.29332619943,-6.85163643334,-2.80622834073,-4.16429096663
1.33700864653,-2.85561801867,-1.91576757347,-0.669866439297
3.79734349249,-5.25959960401,-5.10530680621,-1.40544191197
8.91767833843,4.36641881066,-2.24484603896,2.61898261536
10.8280131844,1.99243722533,-3.2743852717,1.82340714269
5.69834803034,-4.15154436,-4.05392450444,-6.69216832998
1.8086828763,-7.71552594534,-2.35346373718,-7.86774380265
0.869017722245,-4.51950753067,-4.12300296992,-3.19331927532
3.2493525682,2.48651088399,-7.00254220266,-2.55889474799
3.02968741415,0.272529298665,-4.7920814354,-3.33447022066
-0.2899777399,-3.26145228666,-1.41162066814,-3.29004569332
-3.86964289394,-4.49543387201,-3.61115990088,-6.975621166
3.33069195201,-6.46941545733,-4.52069913363,-5.22119663867
-3.13897320203,0.636602957333,-2.26023836637,-2.31677211134
-2.88863835609,-8.33737862799,-5.07977759911,-7.09234758401
-7.12830351013,-8.39136021333,-2.70931683185,-7.57792305667
-12.9879686642,-11.8153417987,-3.35885606459,-11.1734985293
-7.36763381822,-4.669323384,-2.72839529733,-5.95907400201
-4.61729897228,2.61669503067,-0.587934530071,-1.97464947469
-9.74696412632,4.04271344534,2.65252623718,-2.57022494735
-12.6266292804,-3.27126813999,0.732987004445,-7.55580042002
-9.04629443441,-13.9852497253,-4.7665522283,-13.6013758927
-14.4059595885,-3.18923131066,-1.83609146104,-6.17695136536
-9.74562474251,-0.273212895991,0.19436930622,-5.10252683803
-10.8252898966,-5.12719448132,-2.88516992652,-7.6181023107
-14.6149550506,-0.64117606666,-1.94470915926,-6.21367778337
-12.6846202047,-1.38515765199,-2.524248392,-3.51925325604
-14.9642853587,-1.33913923732,1.54621237525,-3.40482872871
-7.62395051275,2.27687917735,0.966673142517,-0.410404201383
-1.61361566679,6.02289759202,2.21713390977,3.33402032595
-4.53328082083,0.188916006678,0.317594677032,-1.20155514672
-6.09294597489,-4.62506557865,-1.52194455571,-4.61713061939
1.22738887107,-1.07904716398,-1.69148378845,-0.362706092063
-0.712276282982,12.5969712507,2.07897697881,11.0217184353
-2.85194143702,9.53298966536,4.71943774607,11.7361429626
-3.52160659107,4.22900808002,3.21989851333,-0.149432510073
2.00872825488,10.0950264947,4.07035928058,6.36499201726
-1.10093689917,8.17104490936,2.22082004785,8.91941654459
0.13939794679,12.457063324,3.33128081511,8.27384107192
4.67973279274,10.2430817387,0.0717415823601,8.43826559925
3.48006763869,6.12910015336,0.122202349619,8.06269012658
2.54040248464,6.78511856803,3.00266311688,7.74711465391
5.1907373306,12.5111369827,4.97312388414,7.51153918124
3.11107217655,8.20715539737,2.6035846514,4.38596370857
-1.59859297749,2.55317381203,1.08404541866,1.3703882359
0.531741868457,-2.3108077733,0.0745061859125,1.04481276323
3.48207671442,-2.22478935863,0.294966953174,1.49923729056
0.382411560364,-1.55877094396,3.29542772043,0.493661817888
2.60274640632,5.7472474707,4.61588848769,4.16808634522
-0.636918747725,6.52326588536,3.80634925495,3.50251087255
1.54341609823,0.309284300034,1.46681002221,1.37693539988
-3.17624905582,-5.6046972853,1.21727078947,-4.24864007279
4.23408579013,-1.84867887063,2.42773155673,-0.37421554546
4.79442063608,2.70733954403,2.48819232398,6.07020898187
3.07475548203,4.33335795871,4.03865309124,5.1546335092
2.48509032799,-4.48062362663,2.2291138585,-0.380941963471
4.60542517394,-7.12460521196,1.99957462576,0.85348256386
3.3657600199,-3.43858679729,0.980035393022,-2.07209290881
6.31609486585,1.73743161737,1.98049616028,1.49233161852
6.1864297118,3.16345003204,0.890956927538,3.21675614585
4.96676455775,0.839468446713,-1.0785823052,-0.55881932682
3.31709940371,-1.94451313862,0.591878462055,2.10560520051
7.52743424966,1.83150527604,1.44233922931,2.18002972784
1.55776909562,3.23752369071,0.822799996575,4.44445425517
11.3281039416,0.573542105376,-0.806739236166,2.2588787825
-0.73156121248,-0.400439479949,1.18372153109,-1.69669669017
-0.861226366527,-5.99442106528,-0.225817701648,-2.09227216284
0.63910847943,-3.15840265062,-1.03535693439,0.0321523644907
3.14944332538,-1.95238423595,-2.35489616713,-1.59342310818
2.16977817134,-0.936365821282,-2.37443539987,-1.91899858085
3.69011301728,-4.87034740661,-2.52397463262,-0.554574053518
1.42044786324,-2.93432899194,-2.75351386536,-0.260149526189
2.65078270919,-0.838310577281,-2.3030530981,2.49427500114
1.23111755514,-0.642292162614,-2.43259233084,0.778699528471
5.7014524011,4.56372625205,-1.30213156358,3.3531240558
-2.48821275296,-0.310255333272,-2.37167079632,-3.19245141687
0.462122093006,-0.904236918614,-0.0912100290625,-0.568026889538
-8.11934229651,-2.89344476742,5.44431322674,-3.49709665697
-5.26055467176,-2.73665577502,2.56952212278,-2.15241427852
3.71823295299,-1.88986678262,-1.60526898119,-0.487731900062
1.14702057774,-7.60307779022,-4.22006008516,-6.61304952161
-2.03419179751,-8.43628879782,-3.53485118912,-4.51836714315
-4.74540417276,-3.55949980541,-2.36964229308,-2.35368476469
4.57338345199,-5.73271081301,-2.49443339705,-3.02900238624
2.80217107673,3.05407817938,0.200775498986,1.16567999222
-1.89904129852,-0.769132828216,0.715984395025,-0.509637629325
-1.95025367377,-2.87234383581,1.37119329106,-1.72495525087
-0.701466049024,-0.0755548434172,1.6464021871,0.549727127588
9.05732157572,2.09123414898,0.671611083129,4.03440950604
-1.29389079953,-1.95197685862,-0.163180020834,-2.3209081155
-2.75510317478,-5.34518786622,0.132028875199,-4.29622573704
-0.726315550033,-8.69839887381,0.717237771238,-7.11154335859
2.53247207472,-4.18160988142,2.49244666727,-2.39686098013
6.68125969946,4.30517911098,2.65765556331,-1.31217860167
-4.15995267579,0.241968103393,-0.0671355406557,-2.81749622322
-1.91116505104,-3.22124290421,-1.42192664462,-3.22281384476
3.75762257371,-2.62445391181,-1.23671774859,0.731868533695
2.59641019845,-4.13766491941,-3.06150885255,1.14655091215
-8.89480217679,-3.62087592701,-4.14629995652,-4.61876670939
-6.42601455205,-4.22408693461,-2.46109106048,-7.57408433094
-5.7972269273,-9.81729794221,-1.58588216444,-9.36940195248
-5.76843930255,-9.64050894981,-0.190673268407,-7.00471957402
-2.9296516778,1.35628004259,1.11453562763,1.68996280443
5.35913594694,1.56306903499,-2.63025547634,2.33464518289
6.55792357169,1.53985802739,-4.5050465803,-1.92067243865
-1.69328880356,0.936647019793,-2.72983768427,0.374009939802
-2.10450117881,-7.3365639878,-2.29462878823,-2.15130768174
2.56428644594,-2.14977499541,-1.8394198922,-3.81662530329
0.543074070687,6.147013997,0.64578900384,0.82805707517
-4.37813830457,4.22380298939,1.41099789988,-1.04726054637
-1.82935067982,-0.629408018205,0.146206795915,-4.34257816792
-1.06056305507,-4.3326190258,-0.958584308053,-5.14789578946
1.21822456968,-4.7158300334,-2.09337541202,-3.193213411
-3.41298780558,1.45095895899,0.12183348402,-2.20853103255
2.99579981917,5.11774795139,-0.382957619946,2.41615134591
3.75458744392,0.964536943793,-1.59774872391,1.49083372437
-1.26662493133,-0.158674063809,-3.27253982787,-0.744483897179
1.23216269342,3.97811492859,0.552669068162,-0.439801518723
-4.21904968183,1.544903921,1.3878779642,-3.10511914027
-1.84026205709,-2.0283070866,0.0830868602316,-4.79043676181
-9.93147443234,-5.1615180942,-1.39170424373,-6.71575438335
-6.1826868076,-11.8847291018,-3.6364953477,-8.8210720049
-1.60389918285,-6.2279401094,-1.39128645166,-4.59638962644
-0.895111558093,0.338848883002,0.643922444375,-3.06170724799
-1.36632393334,-0.0443621246013,-3.01086865959,-4.33702486953
7.20246369141,0.222426867804,-2.86565976355,2.13765750893
9.19125131615,1.2592158602,1.17954913248,5.57233988738
-0.509961059106,2.8860048526,1.34475802852,-0.312977734159
6.89882656564,10.302793845,-1.24003307545,6.8117046443
2.0676141904,1.2595828374,-1.07482417941,3.05638702275
-4.44359818486,-4.6036281702,-1.23961528338,-2.60893059879
-1.67481056011,0.403160822207,-1.41440638734,2.66575177967
0.193977064642,7.10994981461,2.7308025087,7.47043415812
3.16276468938,11.756738807,2.46601140473,8.49511653658
-0.818447685866,7.13352779941,0.191220300767,5.93979891503
-3.28966006111,-0.0796832081978,0.7164291968,2.80448129349
2.40912756363,-0.242894215793,0.031638092838,2.63916367195
1.52791518838,5.88389477661,1.69684698887,7.6438460504
-2.47329718687,13.040683769,2.59205588491,8.93852842886
4.04549043787,14.4474727614,4.23726478095,6.96321080732
1.20427806262,1.97426175381,1.00247367698,4.07789318577
-1.61693431263,0.631050746211,1.80768257302,3.87257556423
9.80185331212,9.95783973861,3.65289146905,11.0672579427
1.86064093687,10.934628731,3.52810036509,11.3719403211
4.06942856162,13.6214177234,4.31330926112,13.8466226996
5.86821618636,6.62820671581,2.24851815716,11.7013050781
3.33700381111,6.28499570821,2.4037270532,9.81598745651
6.01579143586,8.01178470061,3.79893594923,11.420669835
0.824579060609,13.558573693,4.36414484527,7.34535221342
1.67336668536,7.83536268541,4.1693537413,4.55003459188
-1.39784568989,3.61215167781,2.26456263733,2.55471697034
2.35094193486,-6.45105932979,-0.68022846663,-2.19060065121
-1.1602704404,-1.24427033739,0.734980429406,3.57408172725
-3.81148281565,4.88251865502,0.900189325443,4.5087641057
-0.682695190902,4.67930764741,0.305398221477,3.72344648416
2.17609243385,0.146096639815,1.51060711751,1.76812886262
0.134880058591,-0.187114367785,0.785816013551,0.602811241074
-0.766332316656,-0.720325375383,0.611024909587,0.467493619531
0.812455308085,3.12646361702,-0.47376619438,1.53217599799
7.11124293284,4.08325260942,-0.888557298345,3.11685837644
6.31003055759,0.420041601814,-1.77334840231,0.991540754899
7.34881818233,-1.48316940579,-1.38813950627,0.936223133355
3.47760580709,1.06361958662,-1.29293061024,6.61090551181
-0.103606568169,-1.63959142099,0.142278285799,2.51558789027
0.605181056577,5.46719757142,2.72748718184,5.30027026872
5.60396868132,-0.256013436177,1.70269607787,2.61495264718
-0.947243693925,-4.65922444378,0.947904973906,-0.380364974363
5.71154393083,3.81756454862,-0.0968861300607,3.47431740409
3.47033155557,6.36435354102,-0.0816772340222,4.11899978255
3.39911918032,5.51114253342,-0.216468337989,3.31368216101
1.66790680507,3.12793152582,0.178740558047,3.03836453946
7.38669442981,5.06472051822,4.94394945409,6.23304691792
4.67548205456,12.3815095106,6.51915835012,12.4377292964
6.21426967932,12.068298503,3.39436724616,9.04241167483
-2.19694269594,3.34508749542,3.37957614219,4.80709405329
-2.37815507119,2.21187648782,1.10478503822,2.05177643174
-0.839367446446,-1.52133451978,2.85999393426,1.5364588102
-3.6205798217,3.90545447262,4.2552028303,3.97114118866
2.45820780305,1.74224346503,-1.88958827367,0.0258235671117
-0.753004572201,2.07903245743,1.00562062237,3.44050594557
-4.26421694745,2.72582144983,6.00082951841,1.78518832403
-2.4354293227,-1.04738955777,2.76603841444,-0.190129297519
-3.57664169796,0.559399434627,1.61124731047,0.924553080938
2.29214592679,2.25618842703,1.97645620651,5.16923545939
0.320933551535,-2.19702258057,0.0116651025455,-1.85608216215
-4.33027882371,-1.03023358817,0.486873998583,-0.451399783694
-4.83149119897,-10.2334445958,-2.76791710538,-6.89671740524
-4.01270357422,-5.65665560337,0.0572917906538,-5.58203502678
-5.71391594947,-2.29986661098,-0.697499313312,-5.53735264832
-9.74512832472,-2.70307761857,-1.00229041728,-5.32267026987
-6.72634069998,-6.61628862617,-0.547081521243,-10.5579878914
-8.99755307522,-13.1194996338,-2.81187262521,-17.083305513
-13.7387654505,-7.53271064137,-1.48666372917,-14.3686231345
-11.6399778257,-3.03592164897,-2.35145483313,-12.003940756
-8.49119020098,-14.3191326566,-6.1462459371,-15.3092583776
-6.75240257623,-15.8623436642,-6.43103704106,-13.8245759991
-8.79361495149,-13.2455546718,-4.05582814502,-14.0498936207
-6.74482732674,-9.18876567937,-3.04061924899,-7.92521124222
5.14396029802,-4.09197668697,-3.74541035296,-2.14052886376
5.15274792276,-5.04518769457,-5.21020145692,-2.8158464853
1.67153554751,-5.04839870217,-0.494992560885,-1.91116410685
7.07032317226,1.49839029024,0.0702163351525,2.96351827161
8.489110797,-4.04482071736,-4.38457476881,-2.70179934994
13.8078984217,-3.12803172496,-3.10936587278,-2.70711697148
4.1266860465,1.09875726743,-1.26415697674,-0.0224345930237
-7.35453488371,-10.2312572674,-6.79042514536,-10.502525436
2.56066202391,-14.0444867297,-6.38701908992,-10.9804704095
-1.66414106847,-6.20771619207,-4.61361303448,-8.58841538294
-8.00894416085,-4.8109456544,-6.29020697904,-6.25636035639
-1.02374725324,-4.32417511672,-3.4668009236,-7.10430532984
0.251449654381,-0.937404579046,0.336605131833,-5.70225030328
-2.90335343801,-8.81063404137,-1.53998881273,-6.64019527673
-3.79815653039,-2.98386350369,-1.24658275729,-3.77814025018
-8.87295962276,1.78290703399,0.456823298151,0.513914776371
-4.86776271515,-0.840322428339,0.240229353589,-2.45403019708
-8.71256580753,-4.62355189067,-0.13636459097,-5.00197517052
-7.39736889991,-4.87678135298,-0.872958535532,-3.59992014397
2.5678280077,-1.34001081531,-0.309552480092,1.39213488258
-4.78697508468,4.84675972236,-1.08614642466,-0.575810090869
-4.50177817707,0.413530260041,-2.63274036922,-0.603755064317
-2.91658126945,-4.89969920228,-0.619334313775,-0.621700037765
-2.42138436183,-4.63292866461,1.06407174166,-2.71964501121
-0.416187454204,0.0738418730689,2.1174777971,-0.507589984662
4.20900945341,6.01061241075,1.83088385254,5.68446504189
4.31420636102,4.29738294843,2.52428990797,6.14652006844
0.199403268642,4.3341534861,5.27769596341,6.32857509499
-1.85539982373,3.97092402378,6.38110201886,5.03063012155
-2.46020291612,2.66769456145,3.41450807429,4.2926851481
6.5849939915,7.45446509912,2.20791412973,8.27474017465
8.85019089911,4.3412356368,0.24132018517,7.1767952012
9.42538780672,0.488006174477,-0.66527375939,8.09885022775
10.5605847144,-0.995223287842,0.338132296049,4.32090525431
10.785781622,5.34154724983,3.00153835149,5.75296028086
2.74097852958,9.35831778751,3.20494440692,10.7150153074
3.8561754372,6.51508832518,2.87835046236,8.00707033396
-0.528627655185,-0.318141137141,3.8217565178,1.88912536051
8.07656925244,2.80862940053,3.32516257324,6.49118038707
9.99176616006,-2.14460006179,0.64856862868,3.27323541362
1.27696306767,1.89217047589,3.36197468412,3.13529044017
1.47215997529,3.55894101357,1.19538073956,4.78734546672
-0.652643117093,-0.00428844876296,0.908786794997,2.44940049327
6.10255379053,-1.32751791109,3.43219285044,-1.50854448018
1.77775069814,4.35925262659,6.03559890587,3.96351054638
1.53294760576,9.51602316427,4.04900496131,9.26556557293
0.748144513374,2.55279370194,1.45241101675,1.74762059948
3.183341421,3.56956423962,3.15581707219,3.49967562603
10.8285383286,2.9363347773,3.13922312763,5.37173065259
2.51373523623,4.38310531497,1.58262918306,3.38378567914
4.73893214385,2.57987585264,0.936035238505,4.74584070569
4.54412905146,7.15664639032,1.91944129394,4.43789573224
-0.200674040912,-1.706583072,0.542847349381,-2.56004924121
0.8945228667,-5.88981253432,-2.29374659518,-3.71799421466
-2.28028022568,1.91695800336,-0.210340539739,-2.2059391881
3.63491668193,6.11372854102,-0.236934484303,0.976115838447
12.6901135895,12.8104990787,1.22647157114,10.248170865
6.31531049717,6.80726961638,0.309877626576,5.80022589155
8.15050740479,3.69404015406,0.353283682012,2.8322809181
1.2157043124,11.4408106917,1.31668973745,5.53433594466
0.0109012200192,7.98758122941,-0.599904207109,5.13639097121
6.93609812765,6.32435176709,-0.766498151672,5.55844599776
0.451295035258,5.51112230476,2.06690790377,2.70050102431
-2.21350805712,0.137892842438,1.63031395921,0.0625560508633
-4.02831114951,6.90466338011,0.533720014646,0.554611077415
-8.52311424189,5.37143391779,0.0271260700865,-1.26333389603
0.62208266573,3.81820445547,0.320532125523,-0.591278869481
-8.47272042665,-5.97502500685,-3.36606181904,-6.95922384293
-10.337523519,-6.51825446919,-3.0326557636,-4.05716881638
-2.44232661142,-3.54148393151,-2.23924970816,-3.51511378983
-1.92712970381,1.41528660617,-0.245843652723,-2.73305876327
-0.44193279618,2.32205714384,-1.14243759729,-0.921003736722
-7.74673588856,-4.81117231848,-0.469031541845,-7.33894871017
-3.70153898095,-8.5144017808,-2.33562548641,-10.2868936836
-3.57634207333,-5.99763124312,-1.51221943097,-6.30483865707
-3.89114516572,-4.17086070545,-0.768813375529,-7.29278363051
-4.1359482581,-6.70409016778,-3.33540732009,-9.97072860396
-8.25075135048,-8.7073196301,-3.78200126465,-8.87867357741
-3.78555444286,-7.73054909242,-2.20859520921,-7.66661855086
-2.19035753525,-3.51377855474,-2.34518915377,-4.54456352431
-0.565160627622,2.40299198293,0.678216901666,-1.23250849776
-3.11996372,2.56976252061,1.1316229571,-2.2604534712
2.64523318761,1.26653305828,1.64502901254,1.72160155535
1.60043009523,1.94330359596,2.02843506798,4.4636565819
2.84562700284,4.40007413363,0.671841123418,6.65571160845
6.15082391047,0.836844671314,-1.62475282114,1.117766635
-0.0239791819185,0.693615208991,-1.4713467657,-1.28017833844
-3.7287822743,-10.5796142533,-3.51794071027,-5.83812331189
-9.36358536669,-13.2928437157,-4.09453465483,-9.65606828534
-7.26838845907,-8.00607317799,-1.03112859939,-6.99401325879
-3.44319155144,-2.04930264031,-0.717722543948,-1.54195823224
-1.92799464383,-5.16253210263,-3.10431648851,-6.52990320568
-7.29279773621,-5.88576156495,-1.56091043307,-7.95784817913
-8.7076008286,-7.50899102728,-0.107504377636,-4.20579315258
-11.272403921,3.4977795104,1.6659016778,-0.403738126029
-0.257207013361,0.0745500480698,-0.300692266756,-2.88168309948
4.09798989425,0.331320585748,0.192713788681,4.56037192707
-2.92681319813,-8.59190887657,-1.23388015588,-0.807573046372
-10.0116162905,-4.51513833889,-2.03047410044,-6.54551801982
6.24358061711,4.41163219878,0.072931955001,5.29653700673
7.53877752473,5.59840273645,1.61633801044,8.62859203328
-0.876025567653,4.64517327413,-2.29025593412,2.50064705984
2.69917133996,1.9319438118,-1.23684987869,1.61270208639
-4.42563175243,-4.20128565052,-1.77344382324,-0.375242887061
4.7795651552,1.62548488716,0.199962232189,1.96681213949
2.47476206282,-2.54774457517,-3.97663171237,-1.87113283396
-0.620041029571,-2.64097403749,-4.53322565693,-3.85907780741
-5.35484412195,-9.04420349981,-5.95981960149,-6.32702278085
3.05035278566,-12.5674329621,-7.67641354605,-5.8049677543
-2.52445030672,-7.70066242446,-4.25300749061,-4.80291272775
-0.419253399094,-0.533891886786,-1.76960143517,-1.4708577012
-2.66405649148,-4.63712134911,-2.12619537974,-4.57880267465
-0.648859583867,-10.4103508114,-3.0127893243,-7.57674764809
-2.84366267625,-11.9635802738,-3.27938326886,-8.15469262154
-4.09846576863,-5.57680973609,-1.66597721342,-4.91263759499
-2.13326886101,2.3299608016,-1.12257115798,-0.110582568439
2.60192804661,1.44673133927,0.200834897456,1.93147245811
5.35712495422,-7.99649812305,-3.23575904711,-1.57647251533
4.48232186184,0.710272414624,-0.802352991668,3.56558251122
7.56751876947,4.1870429523,0.271053063771,5.54763753777
0.792715677075,3.84381348998,-0.195540880788,3.89969256432
3.73791258469,0.0805840276516,0.617865174649,1.01174759087
4.83310949231,0.677354565327,2.81127123009,1.90380261742
1.07830639993,3.97412510301,2.90467728553,6.46585764398
2.43350330755,9.78089564068,2.74808334096,7.56791267053
8.50870021516,12.4976661784,2.30148939641,8.22996769708
6.94389712278,8.19443671603,4.18489545184,4.88202272363
-2.2209059696,11.0912072537,5.81830150728,4.41407775019
-2.97570906198,1.31797779138,1.98170756272,-0.613867223264
1.99948784563,1.17474832906,2.76511361816,3.58818780329
0.07468475325,6.14151886674,3.9785196736,1.53024282984
-1.35011833913,1.03828940442,2.44192572904,0.952297856392
5.88507856848,0.895059942093,4.09533178448,1.91435288294
-6.29972452389,0.0618304797681,3.64873783991,2.9164079095
-2.38452761628,2.08860101744,3.77214389535,-0.301537063952
-2.65371366277,3.79148255815,0.304800145339,0.660664970933
-4.35894676454,2.01949070684,-0.358714177819,2.29953245171
1.37582013369,-3.06250114446,0.0477714990266,3.64839993248
-4.44941296808,-1.86449299577,-1.41574282413,-0.272732586749
-0.634646069848,0.763515152918,-1.82925714728,-0.273865105976
11.7901208284,-4.58847669839,-4.33277147044,-1.3349976252
2.83488772662,-2.1804685497,-0.656285793593,-0.186130144431
7.91965462486,-1.94246040101,0.0101998832542,-0.847262663659
0.334421523083,-1.50445225232,-0.1333144399,2.35160481712
3.25918842132,9.30355589637,2.12317123694,8.93047229789
5.27395531956,7.80156404506,-0.0803430862143,5.08933977866
-0.941277782222,5.48957219375,-1.42385740937,2.74820725943
0.12348911602,-3.17241965756,-1.13737173252,2.4470747402
1.96825601425,2.07558849113,-2.69088605568,6.16594222098
1.06302291248,-4.08640336018,-4.70440037883,-0.105190298249
5.81778981072,-3.07839521149,-2.09791470199,2.04367718252
0.55255670895,5.2896129372,-0.431429025142,3.3025446633
-0.352676392824,-4.1723789141,-2.0449433483,0.331412144069
0.472090505413,-4.11437076542,-2.51845767145,-0.459720375158
-2.13314259635,1.17363738328,0.068028005393,1.59914710561
3.42162430187,3.04164553196,0.774513682238,3.37801458639
-4.99360879989,3.52965368066,0.480999359082,7.04688206716
1.41115809834,0.387661829343,0.337485035929,2.98574954793
5.29592499658,2.41566997804,1.22397071277,3.19461702871
4.9906918948,6.90367812673,-0.789543610379,7.45348450948
7.44545879304,9.30168627542,-2.00305793354,4.79235199025
8.32022569128,1.89969442411,-3.75657225669,1.34121947102
8.9849925895,4.6877025728,-2.15008657985,7.1800869518
7.74975948774,-1.31428927851,-2.183600903,2.84895443257
11.354526386,-2.41628112982,-1.78711522616,-0.452178086658
7.0792932842,4.16172701887,-1.35062954931,1.03668939411
3.51406018244,3.39973516756,-1.97414387247,-3.65444312511
10.7288270807,-0.272256683747,0.0723418043781,0.62442435566
1.6235939789,0.895751464945,1.13882748122,-1.18670816357
1.58836087713,2.50375961363,-0.294686841931,-2.24784068279
-1.85687222463,4.97176776233,0.831798834912,0.0410267979778
1.52789467361,4.80977591102,0.158284511759,0.19989427875
-1.52733842817,1.8677840597,0.8647701886,-0.571238240476
1.21742847007,0.295792208395,-0.458744134554,-0.792370759704
6.0321953683,2.79380035709,0.207741542294,-1.05350327893
-0.0530377334726,-0.928191494226,-0.00577278085984,-2.76463579816
-2.25827083523,2.09981665447,0.300712895983,-1.92576831739
-7.333503937,-3.27217519684,-0.0128014271722,-5.51690083661
-6.06873703877,-6.56416704815,-1.54631575033,-6.09803335584
-7.84397014054,-1.60615889946,2.14016992652,-6.24916587507
-8.0592032423,5.71184924923,5.26665560336,-4.54029839429
-5.16443634407,3.08985739792,4.20314128021,-1.96143091352
-5.85966944584,-0.47213445339,1.06962695705,-2.40256343275
-5.69490254761,-7.5641263047,-0.763887366102,-8.18369595198
-1.70013564937,-8.98611815601,0.592598310741,-9.5148284712
-4.86536875114,-0.338110007317,2.70908398759,-4.94596099043
-7.35060185291,-4.46010185863,1.37556966443,-6.97709350966
-11.5658349547,-12.4920937099,0.102055341278,-12.2282260289
-14.8410680564,-13.1740855612,0.968541018123,-9.93935854811
-9.75630115821,-6.07607741256,2.16502669497,-8.25049106734
-3.66153425998,-8.71806926386,0.171512371813,-11.0816235866
-6.32676736174,-4.82006111518,1.47799804866,-6.78275610579
-10.3820004635,-9.25205296648,1.3444837255,-6.01388862502
-7.37723356528,-1.77404481779,2.63096940235,-3.82502114425
1.33753333295,-7.1660366691,-0.902544920806,-8.61615366348
1.79230023119,-2.27802852041,-0.626059243961,-2.7572861827
0.067067129421,-5.66002037172,-2.23957356712,-6.72841870193
-6.40816597235,-5.18201222303,-0.973087890274,-4.14955122116
-0.983399074117,-11.8240040743,2.08339778657,-4.77068374039
-0.568632175884,-7.92599592565,3.90988346342,-8.05181625961
-0.243865277647,1.01201222304,3.56636914026,-3.93294877884
1.63090162058,-4.29997962827,2.67285481711,-0.834081298067
-3.43433148118,-5.73197147958,2.99934049395,-0.185213817294
0.800435417048,-6.68396333088,1.7858261708,-1.46634633652
4.92520231528,-2.8959551822,1.62231184764,-0.237478855749
-1.34003078649,-5.53794703351,1.94879752449,0.291388625024
-1.16526388825,-0.469938884817,3.64528320133,-2.0097438942
-2.85049699002,-0.121930736124,2.67176887818,1.54912358657
-7.31573009179,-4.44392258744,1.57825455502,-2.60200893266
-2.14096319355,-0.0559144387444,4.13474023187,-2.12314145189
-4.47619629533,-1.42790629005,2.48122590871,-2.09427397111
-4.23142939709,3.28010185864,2.31771158556,0.374593509659
-3.57666249885,-2.04188999267,-0.215802737599,-1.00653900957
-1.88189560062,-2.00388184398,1.18068293925,-3.38767152879
3.04287129761,1.33412630471,1.46716861609,-0.828804048022
0.507638195842,12.0521344534,3.13365429294,6.82006343275
-6.58759490593,-1.53985739792,-1.55986003022,-2.94106908648
-7.49282800769,-6.18184924922,-1.95337435337,-6.1322016057
-5.45806110946,-5.62384110054,2.67311132347,-4.13333412493
1.12670578877,-0.805832951846,2.61959700032,5.88553335584
-5.478527313,0.522175196842,-2.95391732284,2.85440083661
-6.67376041476,14.4001833455,1.89256835401,6.16326831739
-8.71899351653,4.61819149423,2.55905403085,8.90213579816
-8.4642266183,3.17619964292,1.4755397077,6.18100327893
-5.64945972007,7.46420779161,1.38202538454,8.1998707597
-4.90469282183,16.6622159403,2.62851106139,10.0887382405
-4.70992592361,6.02022408898,-0.265003261768,5.44760572125
-4.74515902537,3.30823223768,-0.338517584922,5.58647320202
-0.840392127131,13.4862403864,5.01796809192,13.8153406828
-1.2756252289,16.7842485351,3.74445376877,15.0342081636
3.82914166933,2.38225668375,-0.539060554387,7.44307564434
6.55390856756,9.75026483244,0.547425122459,4.63194312511
3.9086754658,-2.55172701887,-2.6260892007,2.91081060589
3.42344236403,-1.37371887018,-2.09960352385,1.30967808666
5.38820926226,26.0442892785,7.14688215299,16.2685455674
7.27297616049,11.8222974272,0.553367829838,9.54741304821
6.79774305873,1.71030557589,-5.67014649332,4.19628052898
11.282509957,2.07831372458,-5.09366081647,6.68514800975
3.84727685519,-2.08367812673,-4.25717513962,4.85401549052
4.13204375342,5.77433002197,-1.13068946278,1.4928829713
8.14681065165,10.0523381707,-2.41420378594,2.81175045207
8.67157754989,18.7003463193,2.77228189091,10.9806179328
4.28634444813,1.76835446804,-1.64123243224,5.39948541361
6.51111134636,-18.0236373833,-7.9047467554,-5.41164710561
10.8158782446,-6.51562923458,-4.78826107856,-2.12277962484
7.90064514282,2.84237891411,-2.60177540171,3.18608785593
1.65541204105,10.1403870628,-0.995289724866,3.8149553367
-0.519821060712,-2.72160478851,-2.18880404802,-4.35617718252
1.63494583752,-10.9335966398,-1.90231837118,-7.65730970175
-1.46028726425,3.20441150887,0.794167305667,1.54155777902
3.26447963398,-3.70758034244,-2.74934701748,-1.1595747402
2.02924653222,-7.77957219375,-3.82286134064,-5.89070725943
1.68401343044,2.10843595494,1.3336243362,3.74816022134
-0.85121967132,4.69644410363,2.22011001305,0.467027702114
1.28354722691,-17.3555477477,-6.7734043101,-8.39410481711
3.44831412515,-5.31753959898,-3.60691863326,-3.22523733634
-4.00691897662,-3.6495314503,-1.60043295642,-7.03636985557
0.0478479216181,-8.6415233016,-0.263947279571,-7.12750237479
-3.77738518015,-5.69351515291,3.64253839727,-6.06863489402
0.207381718079,-3.51550700422,0.129024074118,-4.24976741325
-2.63785138369,-5.57749885553,-0.594490249037,-2.18089993248
0.456915514544,0.400509293155,0.781995427809,-2.5820324517
6.15168241278,-0.461482558152,-0.0515188953468,-3.13316497093
-1.15703488371,0.405944767444,-4.80265261628,8.18179505814
0.364816797526,7.98396015497,-0.951075409728,10.4499643781
0.486668478763,14.3319755425,-0.539498203168,13.358133698
1.45852016001,5.78999093,-2.11792099661,12.266303018
-1.92962815875,5.03800631753,-0.836343790059,14.2644723379
-0.517776477522,-3.16397829495,-2.3447665835,6.71264165789
-0.955924796275,14.0440370926,2.06681062305,12.6508109778
6.74592688496,18.1620524801,2.42838782961,15.0489802978
7.1377785662,3.99006786761,-5.50003496384,10.5371496177
9.06963024745,8.99808325513,-2.71845775728,12.5953189377
8.51148192869,7.92609864265,-1.78688055072,12.1534882576
3.54333360992,4.12411403017,-1.60530334417,9.3716575776
7.19518529116,11.3921294177,-2.60372613762,13.6698268975
-0.842963027593,7.48014480521,-3.33214893106,8.4879962175
-3.52111134636,-2.31183980727,-5.8905717245,2.57616553745
-1.33925966512,-1.48382441975,-2.41899451795,4.0743348574
1.50259201612,11.4641909678,1.36258268861,9.78250417735
6.18444369736,17.7922063553,3.47415989516,15.4906734973
13.4562953786,7.44022174281,0.64573710172,12.1688428173
2.35814705984,2.36823713033,0.587314308275,6.4270121372
-0.0900012589191,10.8662525179,2.96889151483,9.49518145715
7.41185042232,6.75426790537,1.57046872139,6.5933507771
9.63370210356,3.4022832929,-1.10795407206,5.86152009705
9.1955537848,6.66029868041,0.173623134495,7.879689417
6.16740546603,3.55831406793,0.255200341056,5.02785873695
-0.91074285272,2.99632945545,3.23677754761,3.69602805691
1.53110882852,5.08434484298,2.09835475417,3.20419737686
-1.16703949024,0.722360230502,1.32993196072,-3.86763330319
-5.67518780901,0.560375618021,2.03150916727,-0.199463983243
-7.76333612777,-1.55160899446,0.383086373833,-2.90129466329
-2.01148444652,-10.8335936069,-1.03533641961,-7.98312534334
0.72036723471,-4.34557821942,2.72624078694,-7.91495602339
-1.07778108404,-4.1875628319,2.8278179935,-5.35678670344
4.5240705972,1.08045255562,2.38939520005,-1.66861738349
-4.12407772157,-8.19153205686,2.24097240661,-5.75044806354
0.957773959672,-9.01351666934,-2.06745038683,-7.64227874359
2.88962564091,0.214498718182,2.94412681972,-4.39410942364
-0.768522677849,5.0925141057,4.65570402628,-1.25594010369
-4.13667099661,-9.86947050678,0.127281232832,-8.60777078374
-7.83481931537,-11.0714551193,2.32885843938,-13.1596014638
-9.72296763413,-5.21343973173,3.25043564595,-14.8514321438
-6.72111595289,-16.4154243442,-1.9079871475,-18.4832628239
0.290735728355,-4.98740895669,-0.556409940946,-10.9250935039
0.83258740959,-12.0693935692,-3.18483273439,-13.536924184
0.504439090822,-19.8013781816,-3.93325552783,-18.758754864
4.95629077207,-10.9233627941,-3.10167832128,-10.3005855441
-1.58185754669,-2.65534740662,-2.75010111472,-7.64241622413
-6.58000586545,0.47266798091,0.491476091833,-10.6542469042
1.55184581579,-5.84931663157,-2.19694670161,-9.61607758423
0.26369749703,-9.67130124405,-2.30536949506,-8.66790826428
0.155549178264,-8.71328585653,-0.863792288503,-8.30973894433
-2.3225991405,1.25472953099,0.977784918057,-1.95156962438
0.529252540749,-2.82725508149,-2.86063787539,-4.60340030443
-1.22889577802,-12.459239694,-4.92906066883,-10.6752309845
-6.28704409677,-17.2712243064,0.0425165377201,-14.6270616645
-8.20519241554,-8.86320891893,-0.685906255723,-13.5488923446
-2.9433407343,-6.55519353141,4.50567095084,-10.4307230246
-1.54148905306,0.0328218561117,6.56724815739,-6.36255370468
-4.61963737182,-7.55916275636,3.22882536395,-13.4143843847
-2.82778569058,-14.2411473688,-2.0195974295,-16.8762150648
-15.0459340093,-16.2131319813,-2.62802022295,-15.5480457448
-15.2140823281,-10.2651165938,-0.616443016388,-10.8298764249
-7.89223064686,-9.01710120629,-0.53486580983,-12.5917071049
-6.99037896562,-7.37908581876,-0.0332886032775,-11.713537785
-5.81852728438,-9.88107043124,-0.611711396723,-9.69536846502
-4.64667560314,-6.33305504372,-1.07013419017,-8.16719914507
-8.3348239219,-5.90503965621,-1.84855698361,-11.4190298251
-3.96297224066,-0.44702426868,0.173020222948,-6.14086050517
-3.04112055942,-0.999008881161,3.7845974295,-4.86269118522
-3.53926887818,-3.73099349364,2.40617463606,-7.24452186527
0.582582803057,1.52702189388,5.02775184261,-3.54635254532
1.5944344843,7.8450372814,5.41932904917,2.78181677463
9.51628616553,20.3230526689,9.61090625573,13.8699860946
7.89813784677,6.24106805644,4.67248346228,3.79815541453
5.26998952802,-6.09091655604,-1.61593933116,-1.00367526552
-2.36815879075,-2.99290116852,0.135637875388,-0.0355059455678
-2.53630710951,2.625114219,-0.192784918054,-3.71733662562
-1.65445542827,-0.126870393477,2.3187922885,-5.71916730567
4.53739625297,1.06114499404,-0.289630504943,0.699002014284
0.859247934211,-7.70083961844,-1.81805329839,-4.90282866577
-1.11890038455,-1.64282423091,0.803523908169,-1.40465934582
-3.2970487033,8.21519115661,5.55510111472,-0.176490025864
-4.92519702206,-2.82679345588,0.666678321279,-7.78832070591
-9.78334534082,-5.50877806835,0.668255527835,-5.46015138596
-9.78149365959,-6.51076268083,0.259832734391,-5.07198206601
-3.97964197835,-14.4427472933,0.0214099409459,-10.7138127461
-6.27779029711,2.72526809421,3.6229871475,0.0643565738883
-7.22593861587,-8.47671651828,-3.69543564594,-5.45747410616
-6.52408693462,-5.33870113076,-2.36385843938,-6.31930478621
3.04776474661,-7.82068574323,0.767718767169,-3.32113546626
9.13961642785,-1.58267035571,1.26929597373,0.28703385369
3.40146810909,-8.74465496818,-2.18912681972,-2.29479682636
4.51331979033,3.20336041933,-1.05754961316,3.52337249359
1.92517147157,0.231375806849,-0.355972406611,0.661541813542
1.08702315281,-6.28060880563,-0.464395200052,-0.890288866507
4.66887483405,-2.45259341811,-0.472817993497,-1.93211954656
0.320726515289,6.06542196941,0.158759213056,-0.033950226607
1.74257819652,4.83343735694,-1.90966358039,1.98421909334
-1.13557012223,-0.658547255553,-0.628086373832,3.56238841329
-3.053718441,8.67946813197,4.20349083273,6.45055773324
-2.43186675976,9.3974835195,4.03506803928,7.29872705319
3.17998492149,4.45549890702,-0.823354754164,5.74689637315
1.40183660272,-4.12648570546,-1.60177754761,4.4750656931
-0.896311716031,7.90152968205,0.639799658948,7.68323501305
-3.2244600348,-8.48045493042,-1.1086231345,-2.348595667
-4.18260835356,8.5975604571,1.91295407206,6.72957365295
4.87924332768,-6.93442415538,-5.96546872138,1.1477429729
3.55109500892,2.70359123214,-3.79389151483,6.45591229285
-0.977053309834,2.97160661966,-1.28231430828,6.5240816128
1.6847983714,0.459622007176,-1.83073710172,5.53225093275
2.78665005264,9.5176373947,1.17084010484,11.3004202527
2.10850173388,14.3256527822,4.13241731139,10.9085895727
1.58035341512,21.0336681697,6.04399451795,12.8167588926
7.84220509636,8.67168355727,0.195571724504,10.6749282126
5.7740567776,6.07969894478,0.557148931057,9.0930975325
4.35590845884,6.1977143323,1.16872613762,9.50126685245
3.33776014008,0.915729719825,-4.42969665583,9.1894361724
5.35961182132,8.16374510735,1.37188055073,7.76760549235
7.36146350256,12.3817604949,5.06345775728,13.1157748123
1.71331518379,-12.4402241176,-4.40496503616,0.403944132255
2.47516686504,0.5877912699,-1.24338782961,3.54211345221
3.49701854627,5.75580665743,-1.57181062305,8.53028277216
0.868870227518,5.28382204495,-2.2102334165,4.93845209211
5.39072190876,11.0718374325,0.641343790059,6.28662141206
2.47257358999,9.72985281998,-1.83707900338,5.78479073201
-2.32557472876,-4.01213179249,-3.85550179683,-0.937039948041
-0.553723047531,3.00588359503,-3.18392459027,0.741129371909
1.28812863371,-2.80610101745,-5.90234738372,0.32929869186
-2.8644322056,-10.5225570417,-4.36017702597,-3.89456202465
-0.753545205553,-4.42047593863,-2.21526808632,-0.418279053964
2.65734179448,2.09160516441,-1.06035914668,2.69800391672
