-5.2941678779,11.9115843023,3.55924418604,13.048684593
-5.26850430896,12.5092242149,3.10848591146,12.5453120994
-2.76284074001,14.7568641275,3.65772763688,15.6419396058
-1.94717717107,16.82450404,6.06696936229,15.5785671122
-0.361513602125,17.6921439526,7.53621108771,14.3951946187
-4.88585003318,8.44978386514,2.66545281313,8.15182212506
-3.32018646424,0.157423777699,-2.84530546146,4.95844963147
-6.4445228953,-3.76493630974,-3.11606373604,0.385077137882
-3.10885932635,-5.00729639718,-5.67682201062,-3.00829535571
-5.69319575741,-3.86965648461,-3.28758028521,-2.1016678493
-7.20753218847,-5.08201657205,-2.57833855979,-4.39504034289
-8.86186861952,-3.37437665949,-2.13909683437,-3.33841283648
-5.92620505058,-3.55673674693,-3.76985510896,-3.33178533007
2.21945851836,-3.74909683437,-3.44061338354,-1.18515782366
2.89512208731,-2.19145692181,-2.62137165812,1.75146968275
3.73078565625,-1.23381700924,-1.31212993271,2.40809718916
7.59644922519,-2.51617709668,-2.43288820729,0.544724695563
4.23211279414,-0.0885371841214,-2.97364648188,1.59135220197
-0.102223636917,0.909102728441,-2.15440475646,0.707979708382
2.94343993202,2.626742641,-2.65516303104,1.65460721479
-1.83089649903,3.08438255356,-1.07592130562,0.991234721201
1.75476706991,1.38202246612,0.683320419792,2.36786222761
8.19043063885,2.28966237869,1.68256214521,3.77448973402
9.9160942078,5.07730229125,3.76180387063,4.05111724043
5.05175777674,3.45494220381,1.85104559604,0.907744746837
3.49742134568,-0.167417883626,1.20028732146,2.25437225325
2.78308491463,-2.58977797106,0.679529046874,3.40099975966
0.528748483572,-3.2721380585,-0.691229227708,-2.13237273393
1.43441205251,-2.74449814594,-1.95198750229,-3.77574522753
4.57007562146,-1.72685823338,-2.42274577687,-2.08911772112
2.9157391904,0.660781679184,-2.14350405146,3.25750978529
3.48140275934,-1.22157840826,-3.19426232604,0.0841372917021
4.96706632829,-1.16393849569,-3.58502060063,-5.17923520189
3.13272989723,-2.10629858313,-3.23577887521,-3.47260769548
1.81839346618,-1.82865867057,-3.39653714979,-1.83598018907
1.44405703512,-2.62101875801,-3.39729542437,-4.90935268266
2.96972060406,-1.77337884545,-2.37805369896,-1.33272517625
-0.444615826993,-2.52573893289,-1.44881197354,-1.18609766984
0.591047741949,-2.27809902032,-1.82957024812,-0.0894701634315
0.0367113108914,-4.26045910776,-2.60032852271,-2.04284265703
-0.107625120167,-5.7828191952,-1.91108679729,-3.80621515062
2.19803844878,-4.18517928264,-1.58184507188,-3.05958764421
-1.19629798228,0.68246062992,0.867396653541,1.1970398622
-0.880634413337,-0.109899457515,-0.183361621042,2.50366736861
4.82502915561,1.04774045504,-0.434119895624,-0.77970512498
1.37069272455,-0.434619632393,0.295121829791,-0.213077618573
4.70635629349,-3.77697971983,-2.16563644479,-1.34645011216
6.83201986244,-5.81933980727,-2.55639471938,-4.32982260575
3.73768343138,-2.72169989471,-0.0771529939593,-0.723195099345
5.75334700033,-0.114059982148,-1.11791126854,2.61343240707
6.55901056927,-1.94642006958,-2.14866954313,1.14005991348
6.79467413821,-1.73878015702,-2.46942781771,0.966687419885
8.83033770715,-0.24114024446,-1.07018609229,0.393314926292
1.8660012761,4.1464996681,1.24905563312,0.309942432701
-0.368335154959,3.42413958066,0.43829735854,2.46656993912
-3.31267158602,1.18177949322,0.797539083957,1.96319744552
-6.07700801707,-0.100580594215,2.79678080937,-0.27017504807
-2.72134444813,-0.73294068165,4.42602253479,-2.90354754166
-6.22568087919,-2.81530076909,5.31526426021,-6.80692003525
-8.77001731024,-4.09766085653,3.96450598562,-8.63029252884
-12.3843537413,-8.75002094396,5.12374771104,-11.2636650224
-11.2586901724,-10.6823810314,5.63298943646,-13.647037516
-10.4930266034,-9.59474111884,7.50223116187,-10.1504100096
-4.71736303447,-5.51710120628,8.86147288729,-3.84378250321
-5.29169946553,-4.75946129372,7.09071461271,-2.1571549968
-5.82603589658,-0.721821381157,5.30995633812,-1.86052749039
-6.53037232764,4.9258185314,9.88919806354,2.03610001602
-5.1247087587,3.10345844397,8.65843978895,2.87272752243
-0.649045189755,3.45109835653,5.58768151437,2.09935502884
2.75661837919,4.45873826909,3.32692323979,1.12598253525
5.33228194813,6.29637818165,3.09616496521,5.37261004166
4.59794551707,5.19401809421,3.31540669062,5.15923754807
1.92360908602,4.83165800677,1.83464841604,2.55586505448
6.24927265496,-0.900702080664,0.973890141457,-1.39750743912
5.33493622391,-1.3930621681,-1.64686813313,-5.5908799327
1.34059979285,-4.57542225554,-1.00762640771,-8.6942524263
-2.81373663821,-10.507782343,-2.6183846823,-12.8876249199
-3.87807306926,-14.4701424304,-4.34914295688,-17.1909974135
-2.60240950032,-14.3425025179,-4.19990123146,-16.6243699071
-2.23674593138,-12.0948626053,-4.09065950604,-16.3277424007
-2.12108236244,-9.86722269273,-2.20141778063,-12.9711148942
-0.885418793488,-9.35958278017,-0.662176055212,-12.6044873878
2.50024477545,-6.75194286761,-0.152934329795,-8.66785988143
3.9759083444,-1.42430295505,0.516307395621,-3.89123237502
2.24157191334,2.17333695752,1.60554912104,-2.34460486861
6.13723548229,4.82097687008,2.69479084646,-0.237977362205
10.6528990512,5.50861678264,3.08403257187,5.17865014421
9.82856262017,7.3062566952,1.78327429729,3.55527765062
7.69422618911,6.47389660776,1.4225160227,2.40190515702
5.30988975806,4.14153652032,-0.398242251878,0.978532663434
5.675553327,5.07917643288,0.290999473538,1.24516016984
-0.0287831040587,5.08681634545,-0.099758801045,1.28178767625
-0.193119535117,4.38445625801,-1.06051707563,-0.301584817338
-1.66745596617,5.52209617057,-0.331275350212,-0.00495731093179
-3.78179239723,2.51973608313,-1.43203362479,-3.16832980452
-7.73612882828,0.837375995692,-3.63279189938,-3.27170229811
-7.31046525934,-4.44498409174,-4.77355017396,-4.6050747917
-10.6948016904,-9.70734417918,-4.80430844855,-12.7584472853
-13.0791381215,-10.4497042666,-5.61506672313,-15.1918197789
-13.9734745525,-11.4420643541,-5.70582499771,-14.6251922725
-16.5178109836,-11.4544244415,-2.7665832723,-13.5685647661
-11.2521474146,-9.82678452893,-0.777341546878,-11.5419372597
-9.43648384568,-4.04914461638,2.43190017854,-8.83530975325
-8.16082027674,0.308495296187,3.54114190395,-3.43868224684
-6.8551567078,3.78613520875,4.16038362937,0.167945259571
-1.19949313885,6.07377512131,3.54962535479,7.77457276598
4.48617043009,8.93141503388,2.8088670802,13.2312002724
6.81183399904,10.6190549464,1.81810880562,16.9978277788
8.36749756798,7.436694859,0.897350531039,15.1744552852
10.6531611369,8.37433477156,0.446592256454,11.5310827916
11.7488247059,6.15197468412,1.06583398187,8.23771029803
8.91448827481,3.99961459668,0.345075707286,6.25433780444
6.17015184375,2.57725450924,-0.605682567297,1.85096531084
4.2558154127,-1.0451055782,-2.81644084188,-2.81240718275
2.00147898164,-1.27746566563,-2.82719911646,-2.06577967634
-5.50285744942,-1.63982575307,-2.38795739105,-3.86915216993
-3.32719388048,-1.02218584051,-3.41871566563,1.99747533648
-0.101530311531,-1.59454592795,-3.08947394021,2.45410284289
1.49413325741,-1.66690601539,-3.9202322148,3.8407303493
4.68979682635,-1.28926610282,-4.33099048938,3.93735785571
1.9054603953,-0.341626190264,-2.41174876396,5.73398536212
0.261123964243,-0.1239862777,-3.22250703855,8.80061286853
2.51678753319,0.00365363486344,-2.67326531313,8.49724037494
1.79245110213,3.32129354742,-0.674023587713,9.33386788135
2.57811467107,8.45893345998,0.215218137702,12.5204953878
-0.816221759982,11.1365733725,2.00445986312,14.2671228942
-3.98055819104,8.89421328511,3.15370158854,14.2737504006
-0.824894622099,7.96185319767,4.13294331395,9.94037790698
-3.37122819767,15.7533248546,7.8412681686,10.3873800872
-1.23723247802,15.9753394239,5.49790420138,9.03264034173
1.19676324163,9.09735399309,3.70454023416,5.70790059627
3.05075896128,5.1493685623,2.74117626694,1.3431608508
1.70475468093,3.93138313152,2.21781229972,-0.0315788946682
0.668750400575,5.63339770074,2.14444833249,2.57368135986
-1.41725387977,6.11541226996,1.87108436527,0.0589416143994
-0.793258160127,7.11742683918,4.28772039805,1.29420186893
1.23073755952,4.3094414084,2.96435643083,-1.13053787654
2.86473327917,0.701455977614,1.19099246361,-3.86527762201
4.90872899882,0.303470546831,2.16762849638,0.549982632529
4.39272471847,2.18548511605,3.15426452916,0.915242887058
4.70672043811,-0.532500314734,1.94090056194,0.730503141589
1.03071615777,-6.81048574551,-0.612463405283,-4.20423660388
-1.38528812259,-4.8984711763,-1.39582737251,-4.76897634934
-5.61129240294,-5.00645660708,1.55080866027,-3.82371609481
-4.58729668329,-5.31444203786,1.56744469305,-5.37845584028
-4.48330096365,-3.43242746864,0.784080725829,-5.41319558575
-3.509305244,0.249587100578,1.49071675861,-0.657935331215
-1.63530952435,2.55160166979,0.727352791384,3.61732492332
-0.391313804696,3.45361623901,0.233988824162,3.54258517785
-4.16731808505,4.26563080823,1.10062485694,3.84784543238
-1.9633223654,-0.692354622552,-0.512739110281,-1.26689431308
-3.12932664575,-6.09034005334,-2.7961030775,-4.07163405855
-1.76533092611,-5.47832548412,-3.78946704473,-5.97637380402
0.928664793544,-1.20631091489,-4.17283101195,-5.54111354949
-1.24733948681,-4.95429634568,-5.91619497917,-7.67585329496
0.0466562328365,-5.86228177646,-4.70955894639,-5.30059304043
-1.42934804751,-5.94026720725,-2.46292291361,-3.1853327859
-2.79535232787,-6.15825263803,-1.23628688084,-5.81007253136
-2.27135660821,-4.72623806881,-0.429650848058,-3.76481227683
1.03263911143,-2.52422349959,-0.75301481528,-1.49955202229
2.54663483108,-0.912208930371,-0.486378782503,0.145708232234
3.91063055073,-2.36019436115,-0.149742749725,1.43096848677
5.20462627038,0.951820208065,0.756893283053,5.6662287413
3.04862199003,-0.646165222719,0.64352931583,4.91148899583
1.90261770967,-1.9541506535,-2.19983465139,1.10674925036
2.81661342932,0.507863915718,-0.0331986186138,2.52200950489
3.37060914897,1.58987848493,1.32343741416,3.40726975943
-0.795395131383,3.81189305416,2.41007344694,4.29253001396
3.24860058827,6.56390762337,2.00670947972,6.57779026849
5.68259630791,6.03592219259,2.0233455125,5.76305052302
3.93659202756,4.67793676181,1.23998154528,5.39831077756
3.14058774721,2.32995133103,-0.233382421946,3.68357103209
3.27458346686,3.26196590024,-1.29674638917,3.96883128662
3.06857918651,1.47398046946,-0.98011035639,3.73409154115
7.62257490616,0.835995038684,-1.70347432361,3.11935179569
5.02657062581,5.5180096079,0.283161709165,5.49461205022
1.78056634545,4.54002417712,1.43979774194,6.41987230475
-0.0154379349005,0.0720387463371,1.94643377472,4.42513255928
2.25855778475,2.06405331555,1.7930698075,5.33039281382
4.1825535044,3.63606788477,1.78970584028,8.22565306835
1.15654922405,3.13808245399,1.51634187306,6.60091332288
-0.479455056306,3.28009702321,2.00297790583,6.47617357741
1.66454066334,3.91211159242,1.99961393861,8.41143383195
5.89853638299,4.85412616164,1.59624997139,9.67669408648
4.53253210264,4.54614073086,1.70288600417,9.37195434101
3.34652782229,3.34815530008,0.759522036944,7.68721459554
2.20052354193,0.510169869296,1.48615806972,4.37247485008
1.28451926159,1.55218443851,1.7327941025,4.01773510461
3.39851498123,-0.815800992266,-0.040569864721,5.10299535914
6.59251070088,-1.07378642305,-0.843933831944,1.91825561367
4.57650642053,-2.18177185383,-1.49729779917,-2.9164841318
2.56050214018,-3.04975728461,-2.53066176639,-2.73122387726
4.49449785983,-3.84774271539,-3.42402573361,-3.50596362273
1.73849357947,0.134271853822,-3.22738970083,-0.560703368203
2.20248929912,-2.58371357696,-5.18075366805,-3.61544311367
-5.15351498123,-7.16169900774,-5.18411763528,-8.09018285914
-8.23951926158,-8.51968443852,-3.3574816025,-10.7849226046
-7.12552354193,-5.77766986931,-1.48084556972,-7.08966235007
-7.91152782229,-6.40565530008,-1.79420953694,-5.89440209554
-3.98753210263,-8.16364073087,-3.76757350416,-7.64914184101
-6.09353638299,-7.73162616165,-3.50093747139,-9.31388158648
-7.94954066334,-10.6696115924,-6.39430143861,-11.2886213319
-5.63554494369,-10.9575970232,-7.33766540583,-11.3733610774
-7.16154922405,-11.865582454,-6.58102937305,-12.3881008229
-6.11755350439,-8.10356788478,-5.06439334028,-9.80284056835
-6.36355778475,-4.92155331556,-2.2977573075,-5.34758031382
-8.4895620651,-5.78953874634,-1.54112127472,-5.09232005928
-7.46556634545,-7.59752417712,-3.71448524194,-10.1970598047
-6.6915706258,-5.59550960791,-4.58784920916,-8.33179955022
-8.45757490615,-3.98349503869,-4.75121317639,-5.85653929569
-8.31357918651,-9.07148046947,-5.04457714361,-13.2512790412
-4.15958346686,-9.88946590025,-4.43794111083,-12.2360187866
-6.41558774721,-8.76745133103,-2.03130507805,-6.56075853209
-5.17159202756,-6.05543676182,0.0853309547256,-3.71549827756
-4.92759630791,-2.8034221926,-1.1880330125,-2.50023802302
-0.983600588264,-2.58140762338,-1.42139697972,-1.39497776849
0.470395131382,-5.96939305416,-2.65476094694,-3.02971751396
1.58439085103,-4.90737848494,-2.09812491416,-4.40445725943
0.208386570677,-3.67536391572,-0.741488881386,-2.4691970049
-0.957617709671,-2.93334934651,-1.92485284861,-4.49393675036
-2.30362199002,-6.97133477729,-3.64821681583,-8.41867649583
-7.17962627037,-8.14932020807,-3.09158078305,-6.8234162413
-3.85563055073,-8.07730563885,-3.10494475027,-4.41815598676
-0.971634831079,-4.53529106963,-2.47830871749,-1.19289573223
0.87236088857,1.21672349958,-0.491672684717,1.8423645223
4.02635660822,7.1687380688,1.87496334806,5.82762477683
4.53035232787,4.74075263802,3.39159938084,3.33288503136
0.904348047516,3.13276720724,3.62823541362,2.54814528589
-1.78165623284,6.00478177645,2.70487144639,5.32340554042
-4.15766051319,5.33679634567,2.23150747917,2.78866579496
-1.92366479354,2.75881091489,0.448143511951,2.13392604949
1.71033092611,0.460825484108,-2.48522045527,-2.46081369598
0.0143266457562,1.31284005333,-0.948584422495,0.00444655855608
0.738322365403,0.404854622546,-0.771948389716,1.77970681309
3.22231808505,0.876869191765,0.204687643061,1.68496706762
0.936313804701,3.85888376098,3.49132367584,4.20022732215
-0.929690475648,3.8508983302,3.07795970862,5.25548757668
-2.765694756,3.76291289942,3.8845957414,4.96074783121
0.208300963644,3.68492746864,2.67123177417,6.10600808575
2.39229668329,1.38694203785,0.0978678069514,2.63126834028
0.57629240294,-1.16104339293,0.654503839729,-2.16347140519
-2.21971187741,-2.91902882371,1.41113987251,-2.63821115066
-0.775716157761,1.45298574551,2.47777590528,2.19704910388
0.938279561888,4.42500031473,3.07441193806,4.84230935841
5.05227528153,7.58701488395,3.34104797084,8.60756961294
5.77627100118,8.70902945316,4.40768400362,9.42282986747
3.83026672083,4.51104402238,1.9943200364,3.66809012201
0.224262440479,4.6330585916,1.23095606917,1.31335037654
2.25825816013,5.11507316081,1.48759210195,1.76861063107
2.36225387978,6.43708773004,3.02422813473,3.3938708856
1.93624959942,7.46910229925,5.19086416751,2.97913114014
5.89024531907,7.30111686847,3.75750020028,3.34439139467
5.74424103872,4.37313143769,1.74413623306,2.0396516492
4.80823675837,5.16514600691,3.30077226584,3.16491190373
6.63223247802,6.17716057612,3.14740829862,2.93017215827
3.83622819766,7.50917514534,4.8640443314,4.4154324128
-0.400061773253,1.79773255815,9.68537063953,-4.43377906978
2.8586842783,0.537691986363,8.01937316883,-4.75909849387
6.13743032984,0.0276514145844,6.10337569813,-6.70441791797
2.42617638139,4.0376108428,4.96737822742,-6.44973734207
1.65492243294,4.32757027102,5.51138075672,-2.55505676617
-0.716331515516,3.80752969924,6.00538328602,-2.77037619026
0.172414536028,6.89748912745,8.78938581532,-0.52569561436
1.57116058758,4.79744855567,9.08338834462,-1.35101503846
-2.23009336087,4.78740798389,8.12739087392,1.24366553744
-1.21134730933,1.21736741211,5.48139340322,0.808346113343
1.93739874222,0.0373268403273,4.32539593251,0.273026689247
0.806144793765,-0.712713731453,1.81939846181,0.617707265148
4.84489084531,-1.35275430324,0.263400991111,1.58238784105
5.11363689686,1.42720512498,1.23740352041,3.48706841695
3.29238294841,0.937164553201,3.29140604971,3.52174899285
1.63112899996,-3.97287601858,3.83540857901,-0.213570431242
-2.44012494849,-5.21291659036,2.83941110831,-4.13888985534
-4.70137889695,-7.40295716215,1.32341363761,-7.77420927944
-5.4426328454,-11.3729977339,-1.39258383309,-11.3195287035
-7.28388679385,-9.10303830571,-1.7885813038,-11.4248481276
-7.33514074231,-9.37307887749,0.185421225502,-9.86016755173
-0.766394690763,-7.77311944927,2.4694237548,-8.42548697583
2.37235136078,-3.63316002105,1.1734262841,-5.17080639993
6.62109741233,-1.23320059283,0.667428813398,-1.21612582403
8.01984346388,-2.07324116462,1.0614313427,-1.47144524812
3.47858951543,-2.4732817364,1.68543387199,-1.48676467222
4.07733556698,-5.99332230818,-0.320563598705,-3.05208409632
-2.79391838148,-5.27336287997,-0.0665610694068,-5.72740352042
-4.99517232993,-5.69340345174,-0.952558540108,-6.16272294451
-4.90642627838,-6.71344402353,-0.568556010809,-9.66804236862
-2.85768022684,-6.34348459531,-0.13455348151,-7.61336179272
-0.118934175287,-4.37352516709,0.519449047788,-2.01868121681
0.369811876262,-4.39356573887,-1.21654842291,-2.74400064091
2.03855792781,-0.923606310651,-0.942545893615,-1.97932006501
3.91730397935,2.28635311757,0.291456635683,2.15536051089
5.3360500309,0.236312545785,0.905459164982,4.3800410868
-1.82520391755,-0.653728025998,-0.410538305719,4.8347216627
-9.516457866,1.23623140222,-1.51653577642,1.1494022386
-5.54771181446,2.82619083044,-1.45253324712,3.1240828145
-2.95896576291,0.536150258657,-1.45853071782,3.1487633904
-4.66021971136,-2.56389031313,-2.91452818852,0.0234439663072
-2.99147365981,-4.23393088491,-4.67052565922,-3.59187545779
-3.80272760827,-0.963971456687,-3.43652312993,1.11280511811
-6.58398155672,-0.58401202847,-3.60252060063,0.357485694014
-6.98523550517,-4.24405260025,-4.80851807133,-2.02783373009
-6.74648945362,-4.90409317203,-5.27451554203,-1.62315315418
-8.20774340208,-6.52413374381,-5.87051301273,-4.62847257828
-3.44899735053,-2.4541743156,-4.74651048343,-3.01379200238
-5.49025129899,1.35578511262,-3.77250795413,-0.549111426477
-0.64150524744,3.50574454084,-2.73850542483,0.575569149427
1.82724080411,7.80570396906,-1.97450289553,7.73024972533
0.925986855655,6.18566339727,-3.04050036624,8.31493030123
-3.1652670928,4.22562282549,-3.86649783694,5.34961087713
-1.40652104125,3.37558225371,-5.51249530764,3.52429145303
-3.6977749897,2.64554168193,-4.94849277834,1.51897202893
-2.62902893815,2.58550111015,-3.55449024904,2.86365260484
2.63971711339,1.65546053837,-4.44048771974,3.26833318074
2.63846316494,2.51541996658,-4.23648519045,2.63301375664
1.80720921649,5.0453793948,-3.26248266115,3.81769433255
0.0359552680347,7.04533882302,-2.94848013185,5.92237490844
0.314701319585,6.64529825124,-3.00447760255,9.88705548435
1.40344737113,7.05525767946,-2.66047507325,11.6417360602
3.12219342267,7.86521710768,-2.36647254395,10.3264166362
3.87093947422,9.28517653589,-2.70247001465,9.01109721205
2.88968552577,10.6551359641,-2.21846748535,11.875777788
2.85843157732,5.22509539233,-3.04446495606,10.1904583639
1.17717762887,-0.53494517945,-5.02046242676,3.95513893976
1.36592368041,1.55501424877,-4.32645989746,4.87981951566
3.50466973196,0.574973676987,-5.99245736816,7.14450009156
-0.696584216494,0.514933105205,-4.17845483886,5.53918066746
6.96216183505,2.82489253342,-1.62445230956,6.52386124337
6.3709078866,5.00485196164,-1.75044978026,6.53854181927
3.41965393815,3.48481138986,-3.15644725096,6.04322239517
2.6783999897,5.15477081808,-1.96244472166,7.12790297107
0.437146041244,7.5047302463,-1.01844219237,8.81258354697
1.67589209279,4.47468967451,-1.14443966307,7.96726412288
6.94463814433,3.63464910273,-2.35043713377,8.62194469878
3.34338419588,6.43460853095,-1.75643460447,12.3766252747
-0.397869752571,7.75456795917,-1.21243207517,9.37130585058
3.31087629898,4.72452738739,-2.12842954587,7.71598642649
-0.210377649473,2.00448681561,-2.27442701657,4.80066700239
-0.141631597926,3.39444624382,-2.29042448728,4.08534757829
4.92711445362,2.46440567204,-2.32642195798,3.65002815419
2.54586050517,3.45436510026,-4.18241942868,3.76470873009
1.49460655672,2.36432452848,-3.99841689938,2.739389306
1.84335260826,1.8842839567,-1.75441437008,1.5840698819
1.10209865981,-2.73575661509,-1.93041184078,-0.4412495422
-3.88915528864,-3.93579718687,-1.69640931148,-1.1565689663
-3.3604092371,-3.23583775865,-2.25240678219,-0.541888390399
-2.81166318555,-5.30587833043,-4.22840425289,-3.30720781449
-0.982917134002,-5.43591890221,-3.89440172359,-2.14252723859
-6.80417108245,-6.21595947399,-3.28039919429,-6.91784666269
-4.92542503091,-7.05600004577,-2.62639666499,-7.78316608679
-4.95667897936,-3.58604061756,-1.95239413569,-5.04848551088
-7.52793292781,-4.28608118934,-2.22839160639,-8.17380493498
-5.45918687627,-5.64612176112,-2.07438907709,-6.39912435908
-1.22044082472,-3.5361623329,-2.9303865478,-0.894443783181
-0.751694773171,-4.33620290468,-3.7563840185,-2.16976320728
-1.27294872162,-2.47624347647,-2.1223814892,-4.75508263138
1.73579732993,1.33371595175,-0.148378959899,-1.33040205548
6.73454338147,1.27367537997,0.4656235694,-0.515721479573
3.51328943302,0.273634808189,-0.3103739013,-2.61104090367
-0.0679645154341,1.17359423641,0.143628627999,0.123639672231
3.03078153611,-0.266446335372,-0.772368842703,-0.921679751867
4.00952758766,0.513513092839,-1.6983663134,1.34300082403
3.0682736392,0.953472521058,-0.884363784106,3.46768139994
4.35701969075,-1.94656805072,-1.78036125481,2.27236197584
2.7357657423,0.693391377496,-0.806358725507,2.09704255174
5.19451179385,5.04335080571,0.49764380379,6.32172312764
8.8532578454,2.83331023393,1.93164633309,3.82640370355
15.0820038969,1.16326966215,2.00564886239,0.701084279448
8.17074994849,4.54322909037,4.53965139169,4.41576485535
9.83949600004,4.44318851859,3.87365392099,3.24044543125
9.09824205159,2.86314794681,2.71765645028,2.88512600715
4.43698810313,4.21310737503,4.75165897958,5.32980658306
1.81573415468,1.13306680324,4.94566150888,2.23448715896
-0.0155197937711,2.12302623146,5.18966403818,2.49916773486
1.31322625777,-0.107014340319,4.26366656748,0.16384831076
2.18197230932,-0.277054912101,3.48766909678,-2.13147111334
-0.349281639134,0.222904516115,5.28167162608,-4.04679053744
-1.72053558758,1.45286394433,7.74567415537,-5.07210996153
-6.66178953604,-3.58717662745,6.33967668467,-10.2974293856
-7.21304348449,-5.90721719923,5.83367921397,-11.9227488097
-6.38429743294,-4.88725777101,7.44768174327,-10.9080682338
-9.9855513814,-6.15729834279,9.29168427257,-12.8933876579
-11.4268053298,-9.88733891457,8.02568680187,-15.328707082
-12.1480592783,-10.3673794864,7.28968933117,-16.3240265061
-11.3993132268,-7.65742005814,7.92369186047,-13.9493459302
-11.542787064,-12.3073074128,-2.33764534884,-14.8051962209
-15.3919865295,-10.192823487,-1.39124911303,-11.4388557785
-14.801185995,-8.4683395612,-1.38485287722,-10.932515336
-11.2603854605,-7.92385563541,-2.20845664142,-9.01617489357
-9.47958492607,-5.47937170962,-2.26206040561,-8.14983445112
-4.88878439159,-6.32488778382,-1.9056641698,-9.11349400866
-2.76798385712,-2.22040385803,-0.869267933989,-3.62715356621
0.662816677348,-2.05591993224,-1.80287169818,-3.90081312375
-0.0663827881799,-2.05143600645,-0.366475462371,-4.78447268129
0.884417746292,4.10304791934,1.09992077343,1.51186776116
-2.47478171924,6.36753184514,-0.0136829907551,1.30820820362
1.58601881524,6.51201577092,-0.117286754947,0.834548646075
2.04681934971,8.27649969672,0.649109480863,2.99088908853
1.89761988418,9.61098362251,-0.374494283329,6.53722953099
2.66842041865,8.4254675483,0.591901952479,5.95356997344
1.91922095312,9.8899514741,1.46829818829,5.6299104159
0.280021487597,8.95443539989,0.654694424094,4.41625085835
-1.15917797793,9.14891932568,1.6810906599,1.83259130081
0.621622556537,5.93340325147,0.277486895713,0.598931743265
-1.24757690899,4.12788717726,-2.37611686848,-0.85472781428
1.76322362548,4.05237110305,-1.01972063267,0.0716126281732
3.61402415995,3.29685502885,0.0566756031385,3.39795307063
5.43482469442,2.57133895464,0.513071838946,4.39429351309
4.7756252289,1.96582288043,0.559468074754,4.36063395554
4.18642576337,2.18030680622,-1.73413568944,2.746974398
7.34722629784,3.41479073201,-2.64773945363,4.15331484045
4.38802683231,0.679274657807,-4.38134321782,2.77965528291
5.84882736678,1.2837585836,-3.95494698201,6.12599572536
2.75962790125,2.67824250939,-2.8085507462,6.54233616782
-1.47957156428,4.49272643518,-0.902154510393,2.82867661028
0.881228970196,1.55721036097,-3.57575827458,-0.624982947269
4.38202950467,-3.59830571324,-3.00936203878,-1.32864250481
4.35283003914,-8.11382178744,-3.81296580297,-4.26230206236
4.05363057361,-5.30933786165,-3.68656956716,-4.6959616199
5.27443110809,-3.71485393586,-2.59017333135,0.330378822553
7.47523164256,0.62962998993,-1.53377709554,6.96671926501
6.65603217703,3.32411391572,-1.07738085974,7.40305970747
3.8968327115,0.0585978415183,-1.21098462393,1.77940014992
6.81763324597,-2.89691823269,-3.05458838812,-0.794259407623
2.62843378044,-3.6324343069,-2.64819215231,-3.47791896517
8.67923431491,-1.45795038111,-1.3417959165,-2.50157852271
9.47003484939,3.11653354468,-2.02539968069,1.55476191975
4.74083538386,4.17101747047,-1.59900344488,4.0111023622
3.24163591833,5.13550139627,-2.08260720907,6.85744280466
0.5724364528,5.61998532206,-0.736210973266,6.72378324711
3.55323698727,5.39446924785,-0.239814737457,7.27012368957
2.62403752174,2.94895317364,1.21658149835,5.85646413202
-2.96516194379,-1.93656290056,1.27297773416,0.952804574477
-0.654361409313,-6.07207897477,1.42937396997,-1.65085498307
0.74643912516,-9.70759504898,-1.21422979422,-6.14451454061
0.557239659629,-5.42311112319,-0.787833558416,-4.45817409816
0.6980401941,-5.8686271974,-1.54143732261,-2.5818336557
-0.381159271426,-8.54414327161,-1.2650410868,-6.34549321324
-4.53035873696,-6.69965934581,0.211355149011,-7.68915277079
-6.45955820248,-3.00517542002,3.10775138482,-8.35281232833
-2.64875766801,0.46930850577,4.00414762063,-2.14647188588
-1.37795713354,-2.29620756844,3.76054385644,-1.21013144342
-1.99715659907,-1.28172364265,3.72694009225,1.26620899903
1.19364393541,-1.09723971685,3.17333632805,-0.0374505585096
-3.10555553012,-3.30275579106,1.87973256386,-3.18111011605
-4.55475499565,-5.01827186527,-0.433871200328,-5.7747696736
-1.47395446118,-2.86378793948,1.94252503548,-3.83842923114
-3.07315392671,-2.49930401369,3.06892127129,0.687911211313
-0.402353392237,-5.03482008789,3.2953175071,-2.08574834623
-0.121552857767,-1.39033616211,4.64171374291,-0.0194079037756
-3.90075232329,-0.265852236313,4.89810997871,-0.0730674613187
-0.669951788823,-1.22136831052,3.47450621452,2.18327298114
2.82084874565,-4.82688438473,1.76090245033,2.92961342359
3.53164928012,-3.23240045894,1.84729868614,1.58595386605
-0.83755018541,-1.72791653314,1.74369492195,-0.517705691498
-0.0167496509384,-3.24343260735,0.500091157755,-1.51136524904
1.78405088354,-2.80894868156,-0.413512606436,-1.98502480658
-3.75514858199,-2.06446475577,1.52288362937,-0.858684364128
-0.0943480475216,-1.51998082998,1.90927986518,-1.13234392167
-1.31354751305,-0.505496904185,4.66567610099,1.47399652078
0.73725302142,1.79898702161,2.9420723368,5.58033696324
0.728053555893,4.4934709474,5.07846857261,5.30667740569
-2.64114590963,3.26795487319,5.52486480841,7.49301784815
0.969654624838,2.27243879898,5.42126104422,4.63935829061
-1.44954484069,4.19692272478,6.14765728003,7.65569873306
-1.36874430622,1.14140665057,3.76405351584,5.14203917552
-2.73794377175,-0.0941094236405,4.46044975165,3.32837961797
0.662856762723,0.110374502154,5.38684598746,3.65472006043
-0.566342702805,-1.93514157206,3.98324222327,0.411060502884
-0.715542168331,-1.04065764627,3.89963845908,1.20740094534
0.165258366138,4.42382627953,4.08603469488,3.52374138779
-2.21394109939,6.21831020532,5.88243093069,5.70008183025
-4.68314056492,5.53279413111,4.6988271665,3.3964222727
-4.84234003045,3.7772780569,3.94522340231,1.08276271516
-5.70153949597,-0.168238017308,1.56161963812,-1.54089684238
-0.130738961503,0.546245908488,0.988015873925,-0.224556399928
0.400061572967,-1.54927016572,1.86441210973,2.60178404253
-1.43913789256,-2.61478623993,1.29080834554,0.248124484984
-0.428337358087,-3.59030231414,0.57720458135,-2.36553507256
-4.05753682362,-1.94581838835,0.723600817159,-1.7991946301
-6.61673628915,-1.54133446255,0.479997052968,-2.47285418765
-6.44593575467,-1.59685053676,-1.45360671122,-1.22651374519
-3.4851352202,-4.23236661097,-1.00721047541,-1.44017330274
1.51566531427,-2.09788268518,-1.53081423961,-0.733832860282
3.11646584874,-1.82339875939,-0.324418003798,0.962507582175
-1.34273361678,0.781085166407,-0.51802176799,4.70884802463
1.19806691769,1.4155690922,-0.331625532181,2.89518846709
0.988867452157,2.58005301799,0.0547707036276,5.05152890954
1.06966798663,-0.475463056217,0.331166939437,3.707869352
5.5904685211,-0.370979130425,0.667563175246,0.814209794458
6.77126905557,4.01350479537,0.0939594110532,5.73055023691
7.18206959004,4.91798872116,0.480355646861,6.49689067937
6.77287012451,5.28247264695,1.00675188267,6.36323112182
2.47367065899,8.66695657274,1.03314811848,7.84957156428
1.41447119346,6.32144049853,-0.950455645712,5.65591200674
0.90527172793,3.51592442432,-3.8240594099,2.56225244919
-0.3539277376,1.26040835012,-3.52766317409,0.158592891647
1.24687279687,-1.49510772409,-2.40126693829,-0.0950666658973
0.587673331345,1.2793762017,-2.33487070248,1.29127377656
-3.56152613418,0.593860127494,-2.32847446667,0.497614219013
-2.34072559971,-0.961655946714,-2.16207823086,-2.79604533853
2.70007493476,5.70282797908,-0.0756819950529,-2.26970489608
3.72087546923,2.04731190487,-0.629285759243,-0.393364453619
3.9816760037,-2.72820416934,-2.52288952344,-3.05702401116
2.00247653817,-1.73372024355,-2.69649328763,-4.88068356871
-0.396722927355,-3.08923631776,-2.78009705182,-7.34434312625
-1.94592239288,-4.27475239196,-3.55370081601,-9.3680026838
-5.60512185841,-3.99026846617,-4.8673045802,-10.4916622413
-8.29432132394,-2.19578454038,-4.59090834439,-9.75532179889
-4.01352078947,-0.831300614587,-5.90451210858,-6.29898135643
-0.222720254995,-2.3368166888,-7.34811587278,-8.63264091397
-1.73191972052,0.547667236995,-5.65171963697,-6.42630047152
0.00888081394805,0.822151162789,-4.92532340116,-5.04996002906
6.54746729652,7.9220821221,-5.97740188954,4.52696947674
1.35221682728,5.96789455915,-4.69403360191,3.17837916018
0.366966358044,6.1437069962,-3.73066531428,2.50978884361
-1.81828411119,3.71951943326,-4.85729702665,1.78119852705
-3.32353458043,-0.314668129689,-5.07392873902,-1.39739178951
-1.55878504967,1.45114430736,-6.74056045138,-0.745982106073
-0.4440355189,1.23695674442,-6.89719216375,0.195427577364
5.17071401186,-0.377230818533,-6.50382387612,-1.7231627392
2.21546354263,-1.45141838148,-6.1804555885,-0.901753055761
-0.869786926611,-1.55560594442,-5.19708730086,3.32965662768
-0.865037395848,-2.29979350737,-6.23371901323,4.09106631111
3.79971213491,-1.70398107032,-6.1203507256,2.16247599455
4.15446166568,0.261831366741,-5.81698243797,3.15388567798
3.97921119644,3.19764380379,-2.90361415034,6.28529536142
3.73396072721,3.86345624085,0.0297541372893,7.51670504486
6.47871025797,4.7092686779,-0.0968775750807,5.4781147283
6.05345978873,6.46508111495,0.956490712551,7.37952441174
3.8582093195,4.980893552,-0.460140999819,5.93093409517
5.56295885026,2.38670598906,-1.61677271219,2.60234377861
5.82770838102,0.682518426114,-2.23340442456,2.24375346205
6.25245791179,2.23833086317,-2.00003613693,4.05516314548
8.25720744255,6.58414330022,-0.586667849297,8.30657282892
8.17195697331,8.63995573727,0.446700438333,8.70798251236
7.02670650408,11.5557681743,2.87006872596,8.5093921958
5.17145603484,9.07158061138,3.39343701359,7.15080187923
4.12620556561,6.87739304843,2.29680530122,3.59221156267
4.70095509637,5.45320548549,0.860173588855,6.07362124611
7.47570462713,3.65901792254,0.533541876486,5.32503092954
7.52045415789,1.95483035959,1.11691016412,0.716440612981
0.945203688661,1.86064279665,2.35027845175,1.49785029642
-1.49004678058,3.1064552337,2.85364673938,1.49925997985
-2.43529724981,1.06226767075,2.34701502701,-2.58933033671
-3.64054771905,4.27808010781,2.49038331464,-1.82792065327
-2.05579818828,3.77389254486,2.54375160227,1.39348903017
-1.00104865752,0.819704981914,2.1671198899,0.0948987136071
0.473700873241,1.72551741897,3.05048817753,4.52630839704
1.828450404,2.53132985602,3.72385646516,6.60771808048
0.0631999347679,2.69714229307,3.97722475279,4.41912776391
-2.48205053447,2.78295473013,5.51059304042,1.51053744735
-1.1273010037,-0.691232832818,5.26396132805,-1.11805286921
-3.71255147295,-5.14542039576,2.47732961568,-5.92664318577
-0.67780194218,-5.90960795871,1.95069790331,-7.24523350234
-3.83305241141,-2.85379552166,-0.235933809057,-5.0738238189
-5.63830288065,-3.6079830846,-0.822565521426,-5.87241413546
-5.08355334989,0.347829352453,2.2008027662,-0.331004452022
-6.46880381912,-4.37635821049,2.45417105384,-3.41959476858
-4.95405428836,-3.00054577344,1.36753934147,-2.80818508515
-4.5093047576,-0.744733336389,1.6209076291,-0.796775401712
-4.66455522683,0.271079100665,2.67427591673,-0.0153657182746
-5.41980569607,-0.453108462279,3.26764420436,0.14604396516
-2.5250561653,0.392703974772,3.85101249199,3.2274536486
-6.59030663455,-3.93148358817,3.23438077962,-1.93113666796
-5.56555710378,-5.58567115112,3.79774906725,-3.57972698452
-6.77080757302,-6.64985871407,4.88111735488,-3.51831730109
-7.37605804225,-3.32404627702,6.11448564251,-0.186907617652
-6.73130851149,-3.70823383996,5.07785393014,-2.66549793421
-8.85655898073,-7.54242140291,1.71122221777,-6.41408825078
-1.70180944997,-7.32660896585,0.174590505401,-7.11267856734
-0.9670599192,-7.2007965288,-0.132041206969,-5.9712688839
-2.46231038844,-9.68498409175,0.631327080662,-8.04985920047
-7.82756085767,-10.6091716547,1.93469536829,-10.548449517
-6.75281132691,-9.76335921764,1.00806365592,-8.15703983359
-9.34806179614,-6.79754678059,1.77143194355,-7.52563015015
-9.80331226538,-6.18173434353,2.09480023119,-9.29422046672
-2.51856273462,-3.23592190648,2.63816851882,-5.60281078328
0.656186796146,1.13989053058,3.52153680644,1.41859890016
0.930936326909,0.655702967626,3.45490509408,1.13000858359
3.74568585767,5.93151540468,4.49827338171,3.59141826703
4.84043538844,4.53732784174,4.84164166934,3.10282795047
-0.8448150808,1.15314027879,2.83500995697,1.4442376339
-5.45006555004,-3.48104728416,1.7683782446,-3.00435268266
-1.69531601927,-6.6352348471,0.811746532228,-7.80294299922
-2.77056648851,-9.32942241005,-0.494885180142,-10.1715333158
-2.43581695775,-5.653609973,1.20848310749,-5.03012363234
-1.12106742698,-1.85779753594,4.37185139512,-1.42871394891
-2.59631789622,-4.39198509889,2.45521968275,-2.78730426547
-3.64156836546,-4.46617266184,2.45858797038,-4.12589458203
-6.50681883469,-5.59036022478,2.78195625801,-3.8644848986
-1.81206930393,-7.31454778773,0.825324545642,-6.67307521516
1.74268022683,-10.0087353507,-0.601307166728,-7.52166553172
1.1774297576,-8.54292291362,0.772061120902,-7.16025584828
-0.497820711636,-6.95711047657,2.65542940853,-5.99884616485
-3.89307118088,-7.97129803952,0.468797696163,-7.94743648141
-3.98832165011,-9.83548560246,0.192165983794,-13.326026798
-5.46357211934,-11.9396731654,0.195534271425,-16.8546171145
-4.09882258858,-10.7838607284,0.088902559055,-13.0132074311
-4.03407305782,-9.1580482913,-1.17772915331,-10.8017977477
-3.04932352706,-7.31223585425,-2.80436086568,-9.32038806422
1.68542600371,-6.15642341719,-4.31099257805,-7.84897838079
2.71017553447,-5.03061098014,-3.76762429042,-6.54756869735
1.07492506523,-3.62479854309,-2.04425600279,-6.79615901391
1.589674596,-0.908986106035,-0.440887715164,-5.15474933048
1.92442412676,1.36682633102,-0.127519427531,-0.733339647039
5.13917365752,1.34263876807,1.4058488601,0.498070036399
3.91392318829,1.95845120513,1.07921714773,2.32947971984
2.49867271905,0.0542636421815,-0.43741456464,3.63088940327
5.05342224982,0.380076079233,-0.364046277009,1.89229908671
1.53817178058,2.47588851629,-0.240677989379,0.753708770146
-0.0670786886585,3.74170095334,-0.417309701748,2.67511845358
0.817670842105,-0.442486609609,-1.61394141412,-0.363471862976
-0.98757962713,0.0633258274465,0.0494268735129,1.46793782046
-3.92283009637,1.8591382645,2.46279516114,1.7393475039
-3.2080805656,2.57495070156,-1.12383655123,1.07075718733
-0.973331034842,2.54076313861,-2.0804682636,5.41216687077
0.261418495924,0.276575575663,-1.30709997597,1.96357655421
-0.103831973312,0.272388012716,-1.05373168833,-0.355013762357
-1.90908244255,0.108200449766,-1.0303634007,-2.97360407892
-1.39433291178,1.39401288682,-0.456995113074,-0.0421943954825
1.71041661898,2.16982532388,0.0363731745565,0.269215287957
-1.06483385026,3.75563776093,1.20974146219,4.6106249714
0.0499156805054,4.06145019798,1.12310974982,7.47203465483
-2.31533478873,-2.92273736496,-1.70352196255,-0.886555661731
-2.99058525797,-2.72692492791,-2.90015367492,-4.8151459783
-0.485835727202,-1.55111249086,-2.60678538729,-1.64373629486
-1.56108619644,-3.2553000538,-1.45341709966,-1.23232661142
-3.34633666568,-3.01948761675,-2.88004881203,-2.08091692799
-1.68158713492,3.5263248203,-2.6766805244,2.54049275545
3.91316239585,9.15213725736,-0.723312236769,8.38190243889
6.20791192661,9.65794969441,-2.13994394914,11.1533121223
6.54266145738,5.44376213146,-2.73657566151,6.30472180577
4.21741098814,4.42957456852,-1.81320737388,5.0061314892
7.9521605189,7.68538700557,-2.38983908625,6.79754117264
5.64691004967,9.85119944262,-2.91647079862,9.61895085608
2.49165958043,11.4770118797,-3.09310251099,10.1103605395
4.5264091112,10.1228243167,-2.71973422335,11.921770223
6.49115864196,8.79863675379,-3.31636593573,11.9431799064
10.2059081727,13.1344491908,-3.04299764809,13.9545895898
11.4106577035,15.1302616279,-3.16962936046,16.7259992733
-3.05442950581,6.00601744187,-5.42800145349,7.32511627907
-1.33337303721,5.03927159632,-4.48475167667,7.06405022546
-4.24231656862,5.30252575079,-4.42150189984,7.55298417186
-7.33126010002,3.90577990525,-3.33825212301,7.24191811825
-1.81020363142,4.7790340597,-3.22500234619,6.39085206464
1.92085283717,9.08228821416,-1.47175256936,10.769786011
0.601909305766,8.67554236862,-0.308502792534,8.60871995742
1.40296577436,7.32879652308,-1.14525301571,6.77765390382
1.24402224295,6.34205067754,-0.902003238878,6.68658785021
-1.90492128845,5.515304832,-1.27875346205,6.5055217966
-0.00386481985333,6.53855898645,-2.04550368523,9.63445574299
2.15719164874,4.74181314092,-2.4722539084,6.75338968939
-0.171751882663,1.96506729538,-4.13900413157,4.00232363578
2.68930458593,0.0383214498324,-5.41575435475,0.721257582172
2.67036105453,-0.948424395709,-6.04250457792,-0.819808471435
3.81141752312,0.0248297587532,-6.44925480109,-1.13087452504
5.41247399172,-1.27191608679,-6.16600502427,-2.65194057865
3.26353046031,0.531338067667,-3.75275524744,-0.663006632254
3.73458692891,3.72459222213,-2.90950547061,3.56592731414
-0.914356602498,1.47784637659,-4.18625569379,2.24486126053
0.606699866101,-1.82889946895,-3.81300591696,-1.95620479308
-2.0522436653,0.354354685503,-1.88975614013,-2.98727084668
-1.66118719671,-1.24239116004,-2.72650636331,-1.39833690029
-1.68013072811,-1.61913700558,-1.43325658648,-2.1294029539
-1.61907425952,-1.78588285112,-0.990006809654,-0.680469007508
3.64198220908,-0.00262869666039,1.21324296717,3.45846493889
6.85303867767,-0.589374542204,0.516492744,2.67739888528
10.7640951463,1.77387961225,-0.960257479173,1.42633283167
10.4551516149,-1.11286623328,-2.43700770235,-0.404733221934
9.24620808346,-0.849612078826,-2.08375792552,1.89420072446
8.94726455205,0.913642075633,-0.390508148694,4.62313467085
7.65832102065,0.616896230091,0.852741628132,4.20206861724
4.40937748925,1.91015038455,3.26599140496,4.67100256363
2.35043395784,5.68340453901,3.74924118179,5.84993651003
3.47149042643,5.09665869347,2.67249095861,3.90887045642
4.34254689503,5.64991284793,3.38574073544,3.10780440281
2.41360336362,5.39316700238,3.78899051226,3.81673834921
2.32465983222,2.03642115684,3.42224028909,2.7756722956
4.78571630082,2.1496753113,2.23549006592,4.06460624199
5.60677276941,5.63292946576,3.61873984274,3.77354018838
5.73782923801,4.05618362022,4.84198961957,4.63247413477
5.6688857066,3.46943777468,4.9252393964,6.04140808117
6.9199421752,3.51269192914,5.96848917322,3.47034202756
4.84099864379,1.2459460836,5.81173895005,1.98927597395
3.52205511239,-0.090799761947,3.83498872688,-0.0617900796533
4.28311158099,-0.797545607489,2.2882385037,-2.34285613326
1.39416804958,-2.40429145303,1.95148828053,-2.23392218687
3.85522451817,-7.46103729857,0.964738057359,-2.40498824047
3.40628098677,-4.76778314411,0.867987834185,-1.33605429408
0.0273374553653,-4.16452898965,0.331237611012,-2.65712034769
-4.06160607604,-5.96127483519,0.544487387839,-9.1081864013
-8.35054960745,-11.3780206807,0.457737164665,-14.2992524549
-6.76949313885,-14.0847665263,-0.849013058509,-14.9203185085
-2.63843667025,-11.2715123718,-0.315763281682,-12.4613845621
0.132619798344,-5.55825821736,3.07748649514,-8.95245061572
-3.57632373306,-5.3850040629,3.61073627197,-10.5135166693
-6.95526726447,-4.24174990844,3.9839860488,-11.7845827229
-9.16421079587,-3.57849575398,5.63723582562,-9.73564877655
-4.29315432728,-4.03524159952,5.07048560245,-10.0167148302
-6.51209785868,-6.45198744506,3.93373537928,-12.5677808838
-10.0610413901,-9.0287332906,2.9369851561,-13.7288469374
-10.3799849215,-11.5554791361,2.24023493293,-14.689912991
-9.25892845289,-10.9822249817,1.88348470976,-14.8909790446
-9.3078719843,-12.1689708272,0.736734486583,-14.5320450982
-9.7068155157,-6.34571667277,1.15998426341,-9.2531111518
-9.51575904711,-4.22246251831,3.61323404024,-6.37417720541
-10.2047025785,-5.90920836385,5.17648381706,-6.79524325901
-8.80364610992,-4.14595420939,4.58973359389,-6.25630931262
-7.19258964132,-4.10270005493,2.19298337072,-6.70737536623
-5.78153317273,-8.32944590048,1.31623314754,-9.00844141984
-4.42047670413,-5.29619174602,2.31948292437,-6.09950747345
-6.29942023554,-6.51293759156,1.6427327012,-5.81057352705
-7.68836376694,-4.0296834371,2.12598247802,-4.51163958066
-9.90730729834,-3.77642928264,2.52923225485,-3.64270563427
-7.98625082975,-0.00317512818219,3.62248203167,-2.79377168787
-3.19519436116,2.52007902628,5.3757318085,0.695162258522
-5.43413789256,3.77333318074,6.91898158533,0.814096204911
-6.95308142397,-0.973412664804,5.17223136216,-4.23696984869
-1.50202495537,-1.92015851034,3.13548113898,-3.8380359023
1.50903151323,1.14309564411,2.69873091581,0.23089804409
-2.86991201818,-1.61365020143,2.58198069264,-0.150168009517
-4.09885554958,-5.53039604697,1.91523046946,-2.23123406313
-0.67779908099,-2.20714189251,1.76848024629,-0.482300116731
-0.706742612394,0.226112261949,2.57173002312,-0.843366170338
-1.8256861438,4.28936641641,2.97497979994,4.12556777606
-0.824629675204,2.29262057086,2.20822957677,2.44450172245
-2.9035732066,-0.124125274673,1.44147935359,-2.17656433116
-3.28251673801,-0.0408711202144,0.164729130422,-3.60763038477
-2.81146026941,-5.25761696576,-0.332021092752,-9.70869643837
-0.890403800819,-1.6343628113,-0.338771315926,-6.32976249198
-0.989347332226,-2.76110865684,-0.605521539099,-3.90082854559
-3.64829086363,-2.78785450238,-0.302271762272,-2.1518945992
-5.43723439503,5.92539965208,3.05097801455,3.5870393472
-5.47617792644,2.78865380654,2.23422779138,0.645973293587
-1.45512145784,-8.40809203901,-5.23252243179,-7.73509276002
6.40593501075,-11.4148378845,-6.50927265496,-8.00615881363
6.42699147935,-9.29158373009,-4.41602287814,-4.58722486723
4.32804794794,-4.80832957563,-3.68277310131,-0.0482909208404
2.84910441654,-1.70507542117,-2.42952332448,-0.93935697445
0.0101608851328,1.61817873329,-1.29627354766,0.489576971944
3.54121735373,4.21143288775,-0.343023770833,5.49851091834
2.96227382232,1.78468704221,-0.479773994006,3.77744486473
2.55333029092,-0.852058803335,-2.82652421718,1.07637881112
2.35438675951,-2.19880464888,-3.41327444035,2.54531275751
2.86544322811,-1.01555049442,-3.93002466353,4.31424670391
1.0764996967,1.47770366004,-3.2267748867,6.5031806503
-0.492443834701,-1.8790421855,-3.63352510987,3.71211459669
1.82861263389,-1.03578803104,-3.05027533305,3.56104854308
0.99966910249,-1.31253387658,-2.38702555622,6.30998248948
1.54072557109,0.180720277876,-2.86377577939,5.85891643587
4.06178203968,0.153974432335,-3.13052600257,5.94785038226
8.35283850828,1.69722858679,-1.23727622574,6.28678432865
8.93389497687,5.93048274125,1.19597355109,10.195718275
8.17495144547,7.47373689571,0.469223327915,9.95465222144
4.59600791406,8.47699105017,-1.29752689526,6.96358616783
7.43706438266,10.3202452046,0.665722881567,4.23252011423
6.13812085125,8.37349935909,-0.251027341606,5.73145406062
5.34917731985,7.47675351355,-2.46777756478,7.41038800701
5.73023378844,8.32000766801,-2.00452778795,7.09932195341
4.65129025704,6.64326182246,-2.50127801113,5.4682558998
4.30234672564,4.84651597692,-2.4180282343,2.69718984619
1.90340319423,6.08977013138,-1.99477845747,2.87612379258
3.08445966283,2.80302428584,-3.88152868065,3.45505773897
4.62551613142,3.3962784403,-4.25827890382,3.70399168537
-0.673427399983,4.44953259476,-4.17502912699,3.70292563176
-3.15237093139,5.58278674922,-2.73177935017,5.38185957815
-4.0213144628,4.09604090368,-2.46852957334,4.17079352455
-5.2302579942,9.18929505814,2.13472020348,6.58972747094
-11.291404406,0.500984788887,3.70429845266,-4.89071334908
-12.0731166888,-2.10736935333,3.15732408111,-6.40500260112
-7.54482897163,-1.11572349554,3.42034970957,-5.09929185316
