5.31910610465,-3.73503997092,1.80055959302,-5.19259447675
8.72731654001,-0.309757599338,2.34860319195,-2.3399342783
1.03552697537,2.33552477225,1.22664679088,0.222725920157
2.58373741073,-4.17919285616,-1.5453096102,-1.61461388139
-2.06805215391,0.0760895154308,-0.00726601126553,-0.881953682936
9.32015828145,-3.30862811298,0.700777587663,-1.99929348448
8.54836871681,-5.89334574139,1.42882118659,-5.00663328603
3.22657915217,0.391936630198,3.07686478552,-0.673973087578
9.87478958753,0.087219001789,2.02490838445,-1.55131288913
7.96300002289,-3.41749862662,2.49295198338,-4.31865269068
-5.27878954175,-5.17221625503,2.53099558231,-5.82599249222
-3.81057910639,-3.03693388344,1.62903918123,-5.16333229377
5.61763132897,-1.06165151185,2.94708278016,-0.850672095316
9.91584176433,2.85363085973,3.69512637909,4.59198810314
5.79405219969,9.56891323133,5.06316997802,10.8046483016
3.78226263505,9.68419560291,4.76121357695,7.04730850004
6.00047307041,4.2894779745,1.44925717588,4.1999686985
7.93868350577,5.30476034609,1.30730077481,5.85262889695
-1.25310605887,4.19004271768,-0.574655626262,2.5352890954
0.815104376486,-0.184674910728,-0.956612027334,2.64794929385
2.08331481185,0.920607460861,0.561431571594,6.19060949231
-0.698474752795,2.11588983245,0.309475170523,7.64326969076
13.1297356826,6.86117220404,0.147518769452,10.7159298892
-5.66205388207,2.89645457563,-0.974437631618,8.36859008766
-1.91384344671,5.72173694722,1.97360596731,9.79125028612
-5.78563301135,2.30701931881,1.65164956624,4.80391048457
-3.15742257599,-1.0176983096,-0.920306834832,2.18657068302
-8.01921214063,-4.45241593801,-3.2522632359,-0.350769118526
-5.99100170528,-6.45713356642,-4.89421963698,-1.01810892007
-1.37279126992,-2.06185119483,-3.75617603805,0.0645512783849
-1.74458083456,0.383431176755,-2.72813243912,2.83721147683
-4.2363703992,-2.83128645166,-2.29008884019,0.279871675288
-3.07815996384,-1.03600408007,0.787954758742,-2.27746812626
-3.30994952848,6.99927829152,2.77599835767,5.18519207219
-5.37173909312,0.814560663113,0.894041956599,-0.182147729356
-5.11352865776,1.7198430347,2.34208555553,1.3605124691
-3.1853182224,3.35512540629,1.80012915446,1.95317266755
-10.137107787,-4.60959222212,-0.351827246615,-3.464167134
-12.8788973517,2.05569014947,0.356216352313,-0.131506935544
-11.7706869163,5.15097252106,0.844259951242,-0.648846737091
-13.992476481,-6.73374510735,-0.837696449829,-5.99618653864
-12.6142660456,-1.44846273576,-1.1296528509,-6.60352634019
-8.95605561024,1.52681963583,0.38839074803,-1.38086614173
-7.73784517488,10.2321020074,3.21643434696,3.71179405672
-3.31963473952,9.90738437901,2.58447794589,5.91445425517
-3.75142430416,-6.3373332494,-0.947478455184,-3.32288554637
-7.0432138688,15.2379491222,3.14056514374,8.56977465208
-4.91500343344,-8.39676850623,-2.01139125733,-1.78756514947
0.933207001919,0.0585138653623,-3.2633476584,2.16509504899
1.02141743728,-0.536203763048,-3.71530405947,2.91775524744
-5.29037212736,-7.08092139146,-3.20726046054,-4.79958455411
-6.962161692,-4.65563901987,-3.41921686161,-6.56692435566
-6.90395125664,2.76964335172,-1.03117326268,-2.28426415721
-9.14574082128,0.0349257233102,-0.813129663753,-3.16160395875
-5.77753038592,2.9202080949,0.144913935175,-1.7789437603
0.470680049439,-1.80450953351,-0.307042465896,-3.77628356185
2.7888904848,7.43077283808,2.66100113303,-0.223623363392
1.81710092016,-0.623944790332,-0.580955268038,-1.26096316494
5.87531135552,0.791337581259,2.51708833089,2.72169703351
7.18352179088,-6.55338004715,-2.89486807018,-2.16564276804
4.14173222624,-7.05809767556,-3.25682447125,-1.56298256958
7.1699426616,-2.78281530398,-1.60878087232,-1.25032237113
4.89815309696,-6.12753293239,-2.35073727339,-7.33766217268
4.62636353232,-2.6322505608,0.487306325535,-6.76500197423
3.85457396768,0.343031810793,3.31534992446,-4.89234177577
2.50278440304,18.7083141824,9.88339352339,3.55031842268
3.1409948384,-12.716403446,-4.04856287768,-8.85702137887
1.36920527376,-3.58112107444,2.60948072125,-4.68436118041
6.67741570911,13.2541612972,5.14752432018,3.40829901804
1.84562614448,-6.45055633126,-0.844432080892,-4.68904078351
5.16383657984,-10.0852739597,-3.77638848196,-5.41638058505
10.4820470152,-8.35999158808,-2.72834488303,0.3062796134
5.62025745056,-9.10470921649,-2.4403012841,-1.13106018815
3.25846788591,-4.4294268449,-2.42225768518,-6.7483999897
-1.75332167873,1.63585552669,-2.94421408625,-2.95573979124
-4.62511124337,-1.92886210172,-4.02617048732,-2.39307959279
-1.07690080801,-2.99357973014,-2.63812688839,-3.43041939434
-1.66869037265,-3.92829735855,-0.840083289462,-2.94775919589
3.48952006271,4.30698501304,0.137960309468,4.22490100257
-6.94226950193,2.90226738463,-1.3339960916,-2.73243879898
-2.14405906657,-2.42245024378,-2.39595249267,-2.28977860053
-3.02584863121,21.2728321278,6.63209110625,9.33288159793
2.58236180415,-7.1018855006,-5.64986529482,-4.98445820362
11.2905722395,-10.916603129,-9.36182169589,-8.65179800517
8.59878267487,-4.27132075742,-5.38377809696,-1.23913780672
5.58699311023,0.00396161416938,-5.83573449803,-1.30647760826
0.93520354559,-6.49075601424,-5.5276908991,-2.16381740981
5.19341398095,-1.07547364265,-3.72964730017,-0.041157211359
-1.71837558369,3.51980872894,-1.87160370124,-0.0684970129041
-3.45016514833,6.74509110053,-2.39356010231,8.48416318555
-4.08195471297,-8.42962652788,-8.43551650339,-3.613176616
-9.03374427761,-6.69434415629,-8.52747290446,-8.89051641754
-6.98553384225,-2.4890617847,-6.56942930553,-6.50785621909
-4.02732340689,-12.0037794131,-7.2813857066,-12.7051960206
-0.339112971531,-5.48849704153,-4.90334210767,-7.83253582219
-1.89090253617,-3.91321466994,-3.09529850874,-4.79987562374
-0.852692100811,-4.48793229835,-0.507254909813,-5.11721542528
-1.28448166545,8.19735007324,2.53078868912,0.845444773175
-1.20627123009,1.00263244483,-2.17116771196,0.548104971625
-0.45806079473,-7.92208518358,-4.81312411303,-6.64923482992
-0.749850359371,-5.27680281199,-3.0050805141,-5.11657463147
2.34836007599,-1.0015204404,-1.46703691517,0.106085566982
2.19657051135,8.43376193119,0.961006683759,4.79874576543
2.59478094671,-3.44095569722,0.709050282687,4.43140596389
2.92299138207,1.01432667437,1.04709388162,6.62406616234
-2.06879818257,-3.05039095404,0.815137480544,4.57672636079
0.889412252785,-2.43510858245,-0.486818920524,3.32938655925
5.43762268814,2.00017378914,1.6512246784,5.7120467577
1.63583312351,10.5254561607,2.60926827733,11.1347069562
1.69404355887,6.35073853232,3.80731187626,4.4273671546
4.79225399423,2.4060209039,4.92535547519,2.52002735306
2.92046442959,5.81130327549,6.28339907412,3.41268755151
-0.821325135055,14.2665856471,8.29144267305,4.07534774996
-1.1631146997,-2.95813198133,-0.0105137280243,-2.83199205158
0.325095735665,0.197150390262,2.3175298709,2.46066814687
2.98330617103,-0.437567238148,3.80557346984,2.34332834532
-5.60848339362,-6.71228486656,0.023617068764,1.19598854378
-3.36027295825,4.78299750503,6.52166066769,8.78864874223
-0.312062522895,10.0482798766,7.31970426662,9.41130894068
1.66614791247,4.46356224821,6.68774786555,4.87396913913
-0.755641652177,9.1488446198,5.81579146448,3.90662933759
1.45256878318,5.46412699139,2.23383506341,4.81928953604
-0.819220781457,-0.250590637022,3.41187866233,-0.0580502655066
5.4089896539,1.34469173457,0.729922261264,-0.335390067055
2.02720008926,-0.610025893844,1.79796586019,1.6072701314
1.63541052462,-0.534743522256,2.01600945912,-0.700069670147
0.243620959982,-1.39946115067,1.36405305805,-4.5774094717
-2.89816860466,-8.21417877908,1.62209665698,-3.66474927324
-2.56880813953,1.61464752908,-0.219563953491,5.01319767442
2.02537953787,8.53874264673,1.58668656152,4.7982432819
1.11956721526,16.2228377644,1.96293707654,8.15328888939
4.16375489266,-2.69306711797,-1.83081240845,0.878334496887
1.47794257005,9.03102799968,3.88543810657,6.49338010437
2.60213024745,17.6951231173,8.86168862159,10.6584257119
2.52631792484,5.03921823499,4.3879391366,5.70347131935
2.00050560223,7.74331335264,0.624189651619,7.65851692684
1.72469327963,-3.95259152971,-3.82955983337,0.0435625343307
3.16888095702,0.891503587945,0.766690681648,1.09860814182
3.53306863442,2.4255987056,-1.00705880334,0.523653749315
0.907256311812,6.03969382325,1.57919171168,5.1586993568
0.881443989205,6.8837889409,4.2954422267,7.73374496429
-3.2443683334,19.4378840586,10.2416927417,13.0187905718
-2.77018065601,23.3019791762,7.65794325673,8.64383617927
-5.90599297861,-16.8539257061,-2.44580622826,-9.08111821324
-3.30180530122,6.01016941151,7.11044428676,-0.106072605751
-2.21761762382,10.2542645292,6.42669480177,3.24897300174
1.19657005357,8.61835964682,5.93294531679,9.72401860923
-3.30924226904,-5.02754523553,-2.5008041682,3.79906421672
-3.00505459164,-4.58345011788,-1.05455365318,2.33410982421
-4.36086691425,4.08064499977,3.34169686183,2.3591554317
-6.71667923685,1.81474011743,-1.65205262315,-3.21579896082
-7.89249155946,-14.5711647649,-7.11580210813,-8.87075335332
-8.36830388207,-19.2770696473,-7.45955159312,-16.7957077458
-3.28411620467,9.39702547038,-6.5233010781,-2.61066213834
-7.73992852728,5.68112058804,-0.717050563086,-3.14561653086
-8.66574084988,-10.2147842943,-2.34080004807,-8.66057092337
-8.68155317249,1.01931082334,6.61545046694,-7.13552531588
-10.6773654951,-7.31659405901,-1.96829901804,-13.1204797084
-12.5031778177,3.17750105865,0.257951496977,-9.75543410089
-11.0389901403,-0.2684038237,7.11420201199,-4.09038849341
-5.81480246291,13.265691294,11.080452527,5.59465711408
-9.27061478552,4.8997864116,9.95670304202,1.12970272157
-8.67642710812,-0.0661184707442,5.59295355704,-1.41525167094
-1.37223943073,10.6179766469,8.28920407205,8.06979393655
9.05194824666,27.9320717646,9.89545458707,18.174839544
3.96613592406,-6.56383311779,4.45170510209,1.97988515153
0.160323601453,3.62026199986,0.957955617101,0.554930759019
4.37451127885,-4.80564288248,0.234206132116,4.33997636651
10.1486989562,2.51845223517,3.51045664713,10.855021974
14.5628866336,13.4825473528,4.33670716215,15.6200675815
9.45707431103,26.5366424705,8.88295767716,16.165113189
10.3812619884,20.7607375881,8.31920819218,18.7601587965
11.6054496658,27.2348327058,12.1554587072,17.275204404
9.30963734321,-3.48107217657,-0.16829077779,2.17025001145
5.92382502061,16.4330229411,5.77795973723,11.9252956189
1.558012698,-6.75288194126,-5.40578974776,-2.61965877358
5.59220037539,-14.9187868236,-3.80953923274,-1.87461316609
7.21638805279,-5.76469170596,-0.0132887177278,-4.3095675586
5.84057573018,-0.690596588307,0.492961797288,2.49547804889
9.31476340758,11.2834985293,-1.4607876877,13.8105236564
7.69895108497,-6.982406353,-7.27453717268,6.28556926387
0.553138762365,4.94168876465,-3.37828665767,-3.06938512864
3.40732643976,16.7657838823,-0.65203614265,4.75566047885
2.21151411715,-23.030121,-9.60578562763,-11.0192939137
2.55570179455,-8.68602588239,-5.82953511262,-6.96424830617
4.24988947194,-6.90193076474,-6.8232845976,-5.54920269868
4.19407714934,-22.3578356471,-13.8970340826,-16.2941570912
-0.85173517327,-18.8037405294,-1.92078356757,-10.7891114837
-2.42754749588,3.65035458822,3.88546694744,-3.25406587621
-8.35335981848,-19.2455502941,-8.23828253754,-24.5690202687
0.040827858913,-34.7614551765,-14.5720320225,-23.2139746612
0.745015536306,-22.5373600588,-10.6257815075,-18.1789290537
-3.5107967863,-13.2932649412,-9.73953099249,-19.4438834463
-2.18660910891,-15.5991698235,-10.4332804775,-14.2588378388
2.58757856849,-35.1850747059,-8.74702996246,-2.80379223127
0.411766245883,-13.9809795882,-6.83077944745,-5.45874662378
-2.82404607672,-22.9268844706,-6.27452893243,-17.0537010163
-1.88985839933,-26.9527893529,-11.0282784174,-19.5486554088
-1.07567072194,-11.4486942353,-1.8220279024,-11.5636098013
-5.15148304454,-17.1145991176,-5.71577738738,-11.3385641938
-3.26729536715,-2.48050399995,3.13047312763,-5.56351858634
-3.88310768975,-1.5264088823,-4.39327635735,-11.2284729788
-1.20892001236,-7.49231376465,-6.98702584234,-3.84342737136
1.48526766504,-7.528218647,-4.72077532732,-3.45838176387
-1.90054465757,-1.65412352934,-4.12452481231,-16.9333361564
0.933643019825,4.01997158831,-4.50827429729,-9.43829054889
-2.77216930278,-22.655933294,-1.05202378227,-8.7132449414
-2.30798162539,-25.9918381764,-9.17577326726,-10.8981993339
2.73620605201,-14.3077430587,-3.36952275224,1.57684627358
5.5403937294,3.72635205892,3.50672776277,1.72189188107
10.8245814068,2.20044717657,-1.54702172221,1.36693748856
6.42876908419,-16.8954577058,-6.3907712072,-3.29801690395
-0.527043238417,-4.40136258813,-1.16452069218,-0.672971296462
1.46714443898,-8.60726747047,-4.29827017717,-1.71792568897
4.66133211637,-9.55317235282,-6.32201966215,2.35711991852
1.87551979377,6.04092276483,2.52423085287,5.02216552601
0.29970747116,1.00501788248,-5.70951863212,0.967211133495
-1.29610485145,-15.6308869999,-10.9232681171,-7.34774325902
6.98808282595,18.2232081178,-9.76701760209,0.887302348474
4.36227050334,1.23730323544,2.96923291293,-0.737652044038
0.776458180735,-13.9686016469,-11.6145165721,0.527393563454
1.77064585813,-20.3745065293,-5.24826605704,0.282439170944
-3.27516646447,-5.7104114116,-4.52201554203,-9.57251522157
-0.870978787081,0.443683706051,-2.33576502701,-3.87746961408
-5.59679110969,-7.1322211763,-4.019514512,-8.68242400659
-2.05260343229,5.24187394136,-1.86326399698,5.7826216009
-0.588415754899,26.355969059,6.02298651804,9.88766720839
2.4457719225,17.3900641767,3.84923703305,14.6527128159
-0.43004040011,3.84415929431,2.31548754807,3.23775842337
-3.72585272272,-11.271745588,-1.32826193692,-5.35719596914
1.44833495468,-7.32765047038,-2.5720114219,1.68784963835
0.522522632073,1.96644464727,-0.345760906885,-4.40710475416
-4.60328969053,-7.57946023508,-3.07951039187,2.83794085333
-4.21910201314,-16.1553651174,-6.99325987686,0.502986460819
2.68508566425,-8.56126999977,0.57299063816,2.33803206831
1.65927334165,15.6628251179,6.53924115318,5.1430776758
7.26346101904,6.47692023553,2.34549166819,13.4181232833
4.54764869644,21.7110153532,0.171742183209,12.7931688908
2.61183637383,-7.28488952916,-1.66200730178,3.92821449826
3.78602405122,23.1092055885,8.60424321324,16.7432601058
3.04021172862,3.68330070614,7.64049372826,10.9183057132
-3.27560059399,6.71739582379,4.94674424327,-0.476648679265
-2.97141291659,-11.4885090586,2.15299475829,-4.56160307178
5.2927747608,-8.8544139409,0.439245273301,4.70344253571
-1.6730375618,8.41968117675,9.37549578832,3.7284881432
1.11115011559,7.8037762944,6.44174630333,1.63353375069
-4.28466220702,4.15787141206,2.94799681835,-5.92142064182
-6.24047452962,15.4419665297,3.74424733336,4.77362496567
-6.83628685223,22.8960616474,4.05049784838,1.98867057316
-4.29209917483,5.62015676501,0.846748363396,-1.38628381935
-0.327911497439,24.4742518827,5.71299887841,12.9487617881
-5.56372382005,4.25834700032,8.02924939343,5.92380739563
-4.92953614265,5.73244211797,4.42549990844,2.34885300312
-7.26534846526,1.07653723562,3.21175042346,-2.13610138939
-3.76116078786,22.4806323533,18.1080009385,6.8089442181
2.59302688953,41.7647274709,19.8742514535,20.9639898256
7.60220168068,-10.6416302521,-13.2871596639,2.50181512603
-3.76249503437,-6.2268433919,0.577391902209,-5.70460504203
-2.12719174942,-4.4420565317,4.97194346829,-2.9510252101
1.60811153553,10.1327303285,5.49649503437,0.0825546218366
-6.07658517952,-6.1924828113,0.761046600453,-7.49386554623
-4.46128189457,-0.717695951103,0.0555981665329,1.5997142857
3.64402139038,12.0470909091,-2.81985026739,7.70329411763
-1.12067532467,9.00187776929,4.2247012987,-0.313126050431
2.91462796028,1.88666462949,4.16925286478,2.5204537815
2.71993124523,-10.4085485103,-4.94619556914,1.73403361343
0.605234530181,-10.7737616501,-0.941644003062,-4.12238655463
11.0905378151,9.86102521009,8.66290756302,5.1311932773
12.7958411001,-9.61418792971,-1.5725408709,2.70477310923
2.81114438503,-0.949401069514,-0.807989304816,0.438352941168
-9.18355233002,14.6953857907,0.856562261264,0.171932773101
-7.01824904507,-0.859827349117,-0.498886172654,6.70551260503
-9.17294576012,-11.5950404889,-3.24433460657,-2.57090756303
-9.52764247517,9.40974637128,1.48021695951,0.0626722689012
-1.41233919022,7.19453323148,-2.68523147441,-1.14374789917
-2.02703590527,9.44932009168,1.00932009167,0.639831932767
-7.21173262032,-7.78589304813,-5.89612834225,-5.6565882353
0.0135706646342,-2.22110618793,0.308423223833,-4.63300840337
6.52887394958,14.8536806723,1.96297478991,2.95057142857
5.48417723453,7.95846753247,1.61752635599,2.8541512605
-1.35051948051,2.55325439267,4.89207792208,1.11773109243
0.844783804434,-5.14195874713,2.72662948816,0.131310924364
3.35008708938,-6.53717188693,-6.24881894576,-6.5351092437
-1.24460962566,-7.74238502674,-2.26426737968,-6.95152941177
1.65069365929,15.7024018335,8.7602841864,7.50205042016
2.00599694424,-5.00281130634,-3.07516424752,2.1156302521
-0.998699770815,-12.4280244461,-6.91061268144,-2.01078991597
-0.683396485863,-4.42323758594,0.313938884645,0.932789915965
1.31190679909,4.40154927426,3.96849045072,3.0163697479
0.397210084036,-5.44366386554,-1.61695798319,-2.53005042017
