0.620534156988,1.3267005814,-0.5321693314,0.83888444767
-0.437366725408,-1.84461926044,-1.00549269823,-1.87428942158
4.0047323922,-5.30593910227,-2.45881606506,-3.11746329084
1.4068315098,-4.5672589441,-1.30213943189,-5.26063716009
1.12893062742,-6.03857878593,-4.27546279871,-6.02381102935
2.38102974502,-5.85989862776,-3.38878616554,-7.1569848986
1.18312886263,-6.3512184696,0.837890467628,-9.65015876786
-0.0247720197658,-6.13253831143,1.8145671008,-7.40333263711
0.747327097841,-1.43385815326,1.10124373397,-4.26650650637
-9.58057378455,1.3348220049,2.77792036714,-3.36968037562
2.03152533305,-1.16649783693,3.24459700032,-5.34285424488
-2.57637554934,-6.74781767876,0.961273633488,-7.70602811413
-7.34427643174,-3.2391375206,1.53795026666,-5.90920198338
-1.49217731413,-8.49045736243,-1.97537310017,-8.67237585264
3.57992180348,-5.70177720426,-4.498696467,-4.99554972189
-0.0779790789129,-4.6030970461,-2.06201983383,-0.538723591149
-6.29587996131,-6.92441688793,-2.62534320065,-1.3918974604
-5.2937808437,-8.64573672976,-2.51866656748,-3.88507132966
1.6483182739,-1.0670565716,-0.0119899343117,-1.10824519891
9.31041739151,3.80162358657,-0.62531330114,6.16858093183
9.10251650912,2.15030374474,-0.308636667967,3.44540706258
-6.14538437328,-2.67101609709,-0.981960034795,-5.48776680668
0.326714744333,4.63766406108,-0.425283401624,0.879059324068
1.27881386194,5.55634421924,1.47139323155,0.975885454814
0.670912979545,8.30502437741,1.08806986472,0.982711585561
2.14301209715,4.73370453557,-0.205253502108,0.839537716303
3.81511121476,0.0323846937426,-1.88857686894,1.06636384705
5.61721033236,-1.36893514809,-1.33190023577,-1.26681002221
5.20930944997,3.00974501007,0.204776397404,3.70001610854
3.15140856757,1.71842516824,0.341453030576,3.26684223929
8.19350768518,4.37710532641,0.138129663748,1.98366837003
-1.31439319721,2.43578548458,-1.85519370308,2.35049450078
-1.0922940796,-0.965534357256,-2.21851706991,0.297320631522
6.519805038,-1.43685419909,-3.80184043674,1.51414676227
8.28190415561,1.56182595908,-2.88516380356,5.91097289301
4.92400327322,0.420506117243,-4.69848717039,2.31779902376
6.05610239082,-2.43081372459,-2.06181053722,-1.6053748455
-1.82179849157,0.627866433577,2.60486609595,-0.248548714751
-4.83969937397,-0.313453408256,1.95154272912,-1.94172258401
-5.22760025636,1.36522674991,2.6882193623,-2.02489645326
0.59449886125,1.25390690808,2.75489599547,-1.69807032251
-5.78340202114,-1.19741293375,1.65157262864,-0.731244191769
-5.63130290354,-0.688732775587,-0.871750738192,-0.314418061023
-7.06920378593,-0.730052617422,-2.30507410502,-2.42759193028
-10.4271046683,0.988627540744,0.421602528153,-1.97076579953
-3.74500555072,1.37730769891,1.44827916132,0.386060331213
-1.22290643311,3.16598785708,2.1149557945,4.99288646196
-1.59080731551,1.39466801524,0.141632427667,3.6397125927
-5.9387081979,3.47334817341,-0.881690939161,4.23653872345
1.86339091971,5.06202833158,-2.25501430599,5.11336485419
3.10549003732,2.79070848975,-3.56833767282,3.79019098494
-2.98241084508,-0.790611352084,-2.83166103965,2.56701711568
5.43968827253,3.59806880608,-0.894984406474,6.86384324643
-4.55821260987,-0.133251035753,0.981692226696,5.74066937718
-2.68611349226,7.26542912241,2.85836885987,7.37749550792
-5.19401437465,8.26410928058,1.89504549304,7.61432163867
-6.47191525705,5.61278943875,1.29172212621,4.71114776941
-1.17981613944,6.03146959692,2.60839875938,8.09797390016
-3.08771702183,6.48014975508,3.47507539256,5.9448000309
-3.78561790423,4.53882991325,2.46175202573,5.79162616165
0.256481213379,5.90751007142,1.5484286589,5.33845229239
0.308580330984,9.79619022958,3.86510529207,8.29527842314
2.72067944859,8.56487038775,3.55178192524,10.0521045539
2.6027785662,5.37355054592,2.56845855841,7.50893068463
-0.195122316196,11.0022307041,3.97513519159,13.0357568154
-7.56302319859,7.72091086226,3.23181182476,4.98258294612
-6.11092408098,1.34959102042,1.50848845793,0.539409076866
-3.00882496337,-5.04172882141,-1.6148349089,-0.783764792392
-9.45672584577,-4.75304866325,-3.58815827573,-2.16693866164
-8.09462672816,-0.994368505078,-0.121481642556,1.3998874691
0.677472389445,1.84431165309,3.24519499062,3.79671359985
10.439571507,-2.59700818875,0.341871623788,1.44353973059
-1.49832937534,-3.31832803058,0.22854825696,-2.03963413866
2.31376974226,-0.359647872414,0.24522489013,0.407191992083
4.72586885987,-0.720967714242,-1.5880984767,-3.19598187717
4.73796797748,2.04771244392,0.508578156474,-1.71915574643
-1.00993290492,-1.86360739791,1.91525478965,-2.02232961568
-7.78783378731,-2.48492723974,1.37193142282,-1.96550348493
-7.1657346697,-0.136247081577,1.46860805599,-1.25867735419
1.4563644479,-0.0875669234119,0.63528468916,0.648148776554
8.19846356551,2.68111323475,3.29196132233,1.7249749073
-3.42943731689,-2.06020660708,1.5486379555,-2.61819896195
-0.447338199279,-3.01152644891,0.355314588676,-2.65137283121
0.114760918328,-0.20284629074,-0.608008778152,-0.784546700464
4.68686003594,1.41583386742,1.58866785502,0.782279430281
-0.261040846457,1.52451402559,2.72534448819,3.02910556103
-0.248941728849,-0.466805816242,3.95202112136,3.91593169177
-1.36684261125,1.64187434192,4.32869775453,3.02275782252
7.36525650636,4.01055450009,3.78537438771,4.79958395326
8.60735562397,7.51923465826,3.03205102088,9.95641008401
10.7294547416,7.29791481642,1.65872765405,10.2532362148
7.12155385918,1.88659497459,1.54540428722,3.2900623455
5.80365297679,2.29527513276,3.80208092039,3.20688847624
6.8657520944,0.0339552909281,2.38875755356,1.38371460699
5.297851212,-0.677364550906,-0.00456581326398,-1.03945926227
3.51995032961,3.08131560726,1.36211081991,-0.362633131519
-0.817950552784,-2.55000423457,-0.34121254692,-2.24580700077
-0.0258514351808,-9.77132407641,-2.62453591375,-8.67898087003
-0.743752317572,-5.86264391824,-4.16785928058,-9.07215473928
-0.171653199966,-6.59396376007,-5.37118264741,-7.74532860854
-0.439554082361,-9.3252836019,-3.65450601423,-8.68850247779
-5.69745496476,-6.14660344374,0.142170618938,-4.79167634705
-3.35535584715,-2.99792328557,-0.0811527478909,-1.5448502163
-0.593256729539,-0.129243127401,-1.33447611472,-0.0380240855575
0.738842388066,3.77943703076,1.18220051845,2.98880204519
2.34094150567,9.34811718893,3.68887715162,8.67562817593
7.45304062328,1.3267973471,0.395553784796,6.47245430668
6.53513974088,-7.54452249474,-0.277769582033,-3.01071956258
4.15723885849,-3.99584233657,1.77890705114,-1.01389343183
-5.4406620239,-4.2371621784,0.0955836843114,-1.02706730109
-4.1885629063,-4.25848202024,0.522260317483,0.18975882966
-1.84646378869,-2.66980186207,0.208936950654,-0.403415039595
-2.41436467108,-2.6911217039,-1.24438641617,-5.15658890885
-0.742265553476,-0.322441545733,-3.037709783,-5.3897627781
3.08983356413,0.946238612432,-3.33103314983,-4.73293664736
0.271932681739,0.0149187705974,-2.34435651666,-3.11611051661
-5.32596820066,-4.85640107124,-2.63767988349,-4.26928438587
-4.92386908305,-4.74772091307,-2.31100325032,-5.22245825512
-4.46176996544,-2.8890407549,-3.09432661715,-3.55563212437
4.96032915216,-2.44036059673,-3.13764998397,-2.55880599363
-3.98757173023,2.24831956144,-1.8209733508,-2.37197986289
-5.33547261262,-2.7530002804,-0.954296717629,-6.29515373214
-1.89337349502,-1.47432012223,-0.797620084457,-3.7383276014
-1.19127437741,-1.03563996407,0.0290565487139,-2.41150147065
-0.0791752598016,1.3430401941,-1.27426681811,0.955324660095
8.1429238578,4.00172035227,-0.847590184943,2.32215079084
-2.05497702459,-2.63959948956,-1.19091355177,-3.99102307841
-2.28287790699,-1.1409193314,-3.5342369186,-6.75419694767
-16.5590479651,-12.9891860465,-3.32543968023,-13.1242514535
-12.7153670916,-13.0344129395,-3.98837320889,-14.2516549739
-17.5016862182,-14.7996398324,0.12869326245,-15.1290584943
-16.9280053447,-10.2448667254,1.25575973379,-9.86646201474
-6.53432447124,-6.09009361838,1.15282620513,-6.54386553516
-9.87064359777,-7.43532051135,0.529892676477,-7.93126905558
-4.61696272431,-5.62054740432,1.06695914782,-3.648672576
-10.5232818508,-6.70577429729,1.57402561916,-5.77607609641
-6.11960097737,-8.89100119026,2.2710920905,-3.50347961683
-4.58592010391,-4.89622808322,1.91815856185,0.579116862751
-4.22223923044,0.30854502381,0.985225033188,-0.728286657664
-4.02855835697,-0.0266818691562,1.97229150453,-2.14569017808
1.89512251649,-0.941908762128,0.709357975873,-0.433093698499
2.01880338996,2.6728643449,-0.673575552786,1.34950278108
-2.46751573658,1.81763745194,-1.35650908144,-0.867900739335
10.7161651369,7.58241055897,0.1905573899,5.18469574025
9.76984601036,11.477183666,0.507623861242,9.77729221983
14.8835268838,14.421956773,1.03469033258,10.1298886994
7.64720775729,8.98672988006,-1.12824319607,3.502485179
8.13088863075,7.8615029871,-2.84117672473,6.46508165858
12.3945695042,6.79627609413,-0.294110253388,6.28767813816
10.8582503777,7.64104920116,-0.437043782047,6.21027461774
6.82193125115,5.10582230819,-1.6599773107,4.70287109733
5.88561212462,4.08059541522,-1.19291083936,3.04546757691
7.21929299808,-0.504631477746,-1.47584436802,-2.04193594351
11.9129738716,4.81014162928,-2.28877789668,3.27066053607
6.27665474502,4.11491473631,-5.21171142533,3.89325701566
1.40033561848,-1.32031215665,-5.05464495399,-1.90414650476
-3.49598350805,1.76446095038,-3.27757848265,-2.29155002518
1.50769736542,7.79923405741,-1.48051201131,4.5810464544
-0.188621761117,-2.12599283556,-2.41344553997,-1.83635706601
4.43505911235,7.67878027147,-0.176379068624,1.81623941357
-7.59126001419,3.01355337851,0.210687402719,2.63883589315
-4.89757914072,-0.211673514463,-0.702246125938,2.39143237273
-3.31389826725,-2.46690040743,-2.1251796546,0.124028852317
-3.92021739379,-4.1321273004,-1.39811318326,-4.7833746681
2.52346347968,-2.96735419337,-1.84104671191,-3.89077818852
2.17714435315,-1.56258108634,-2.12398024057,-1.84818170894
5.13082522661,-2.90780797931,-0.936913769228,-3.84558522935
2.17450610008,0.156965127724,0.990152702114,-1.90298874977
4.64818697354,-0.538261765243,1.89721917346,-0.520392270188
0.92186784701,-5.28348865821,0.654285644798,-4.59779579061
5.29554872048,-1.23871555118,-0.218647883858,-1.61519931102
-4.72077040605,-2.47394244415,0.748418587484,-1.44260283144
-4.51708953259,-2.51916933712,1.20548505883,-0.710006351859
2.73659134088,-0.884396230085,1.23255153017,4.06259012772
-6.93972778566,2.26037687695,1.43961800151,7.85518660731
-2.27604691219,0.535149983978,0.156684472853,7.22778308689
-4.15236603872,4.30992309101,2.2637509442,6.30037956647
5.57131483474,0.66469619804,4.12081741554,4.86297604606
-3.01500429179,0.529469305071,3.45788388688,1.63557252564
2.40867658168,3.97424241211,4.35495035822,0.648169005219
5.35235745514,6.15901551914,4.50201682956,3.6107654848
0.506038328607,4.86378862617,3.36908330091,4.85336196439
1.01971920208,4.5185617332,3.48614977225,4.86595844397
-0.796599924459,4.52333484023,1.12321624359,5.46855492355
-6.52291905099,5.85810794726,2.36028271493,2.37115140313
-1.35923817753,6.64288105429,3.79734918628,4.73374788271
-0.495557304061,3.97765416132,4.56441565762,2.1763443623
-1.81187643059,0.582427268357,2.62148212896,-1.29105915812
-5.50819555713,1.80720037539,2.3785486003,-0.118462678536
-1.95451468366,3.32197348242,1.15561507164,0.614133801046
-0.0808338101961,12.2567465895,4.11268154299,4.45673028063
4.38284706327,9.55151969648,6.82974801433,11.0193267602
0.516527936736,0.256292803515,2.65681448567,3.00192323979
2.4102088102,-7.16893408946,-0.896119042985,-4.80548028062
6.77388968367,-6.03416098242,0.700947428357,-3.11288380104
-1.14242944287,-5.56938787539,-0.771986100301,-5.35028732146
-7.8087485694,-3.86461476836,-1.63491962896,-7.16769084188
-5.95506769593,-4.24984166133,1.07214684238,-7.93509436229
-8.48138682247,-3.2250685543,2.82921331373,-7.54249788271
0.412294051002,-0.460295447265,3.18627978507,-0.619901403128
-2.47402507553,1.01447765977,1.32334625641,-0.137304923546
-2.75034420207,0.569250766799,1.84041272775,-3.76470844396
7.8233366714,0.164023873833,-0.0125208009049,0.897888035617
6.25701754487,3.33879698086,1.02454567044,3.3504845152
6.30069841833,0.0235700878911,-0.52838785822,2.40308099478
5.4243792918,0.218343194927,-0.591321386879,2.64567747437
3.27806016526,-0.476883698044,-1.59425491554,5.11827395395
-1.39825896127,-4.21211059101,-4.30718844419,-2.62912956647
-1.8945780878,-7.89733748398,-3.88012197285,-3.74653308689
6.83910278566,-3.32256437695,-3.40305550151,0.626063392696
7.17278365913,-1.15779126991,-2.70598903017,2.98865987228
2.2764645326,-4.17301816288,-6.18892255882,-1.51874364814
1.36014540606,0.541754944144,-3.54185608748,1.83385283145
3.65382627953,0.586528051179,-2.39478961614,1.24644931103
7.78750715299,2.39130115821,-4.4277231448,4.02904579061
4.43118802646,3.90607426524,-5.09065667345,6.75164227019
2.66486889993,-2.01915262773,-4.70359020211,3.76423874977
-1.72145022661,-4.9943795207,-4.73652373077,-3.08316477064
-0.58776935314,-1.27960641366,-2.56945725943,-3.58056829106
2.72591152033,-5.21483330663,-3.36239078809,-5.34797181148
3.11959239379,-6.9200601996,-4.65532431675,-3.3053753319
3.50327326726,-5.04528709257,-4.3982578454,0.287221147686
5.37695414072,-4.69051398554,-2.47119137406,1.70981762727
2.28063501419,-2.67574087851,-0.184124902717,-0.687585893147
7.42431588766,4.08903222853,0.112941568625,6.36501058644
3.97799676112,6.05380533556,2.22000803997,10.477607066
9.05167763459,4.95857844259,1.68707451131,7.1402035456
3.66535850806,-0.16664845038,1.36414098265,2.86280002518
0.72903938152,-0.16187534335,-0.0587925460059,1.93539650476
7.23272025499,-0.907102236317,-2.11172607466,1.27799298435
1.66640112845,1.86767087071,-0.784659603321,4.65058946393
0.470082001921,0.432443977748,1.96240686802,4.79318594351
4.49376287539,-0.462782915223,2.39947333936,5.77578242309
5.00744374885,0.631990191807,1.88653981071,4.55837890268
-0.208875377681,2.14676329884,2.70360628205,5.64097538226
-2.12519450422,2.14153640587,3.78067275339,2.71357186184
-5.24151363075,0.706309512901,3.78773922473,1.91616834143
-5.70783275728,-0.00891738006248,2.83480569608,0.258764821008
-1.31415188382,0.975855726967,1.34187216742,-0.66863869941
-1.62047101035,0.900628834002,0.98893863876,0.893957780174
-4.08679013688,0.0554019410301,1.4260051101,-3.02344574024
0.606890736581,0.0901750480625,1.02307158144,-2.14084926066
-1.33942838995,0.0249481550964,1.52013805279,-2.30825278108
1.80425248351,-0.470278737874,0.23720452413,-0.925656301497
3.18793335698,-1.11550563085,-2.01572900453,-3.95305982192
5.42161423045,1.48926747619,-1.06866253319,-2.06046334233
6.40529510391,1.78404058322,3.51840393815,2.65213313725
-3.01102402262,-1.03118630975,1.9154704095,1.16472961683
-6.94734314915,5.02358679728,1.16253688084,-0.562673903583
-11.0836622757,-1.46164009569,-0.460396647817,-7.230077424
-6.85998140222,-0.036866988652,-0.143330176476,-7.07748094442
-9.43630052876,-4.78209388162,-0.716263705133,-10.0848844648
-12.4126196553,-1.64732077459,-0.129197233791,-9.31228798525
-9.90893878182,-1.54254766756,-1.24213076245,-6.73969150567
-12.4452579084,-4.53777456053,-3.15506429111,-9.07709502609
-9.96157703489,-5.0130014535,-2.27799781976,-10.3544985465
-9.95989098837,-8.12015988371,-2.89994186047,-2.40056322675
-7.50726598265,-8.11432813358,-2.27363372093,-2.41808634523
-4.87464097692,-5.98849638344,-1.6373255814,-0.645609463703
-2.1620159712,-3.1126646333,-0.201017441863,3.91686741782
-4.12939096548,-5.32683288317,1.16529069767,2.44934429934
-4.44676595976,-6.61100113303,-0.478401162794,1.21182118087
-7.69414095404,-6.69516938289,0.167906976742,-0.615701937608
-0.241515948313,-7.13933763275,-1.22578488372,1.53677494392
-5.27889094259,-7.87350588262,-3.70947674419,-3.78074817456
-6.06626593687,-7.03767413248,-2.76316860465,-6.63827129304
-0.823640931147,-10.2718423823,0.533139534882,-5.01579441151
-5.03101592543,-5.61601063221,2.43944767442,-2.64331752999
-2.3083909197,-4.94017888207,3.60575581395,-0.360840648467
5.19423408602,-1.04434713193,4.68206395349,2.40163623306
4.60685909174,-0.00851538179268,5.40837209302,2.96411311458
1.78948409747,-0.182683631658,3.28468023256,2.3265899961
-7.60789089681,-0.356851881519,0.740988372092,-0.220933122371
-3.27526589109,-2.69102013138,0.777296511626,-0.0984562408485
-0.712640885369,-0.715188381244,0.77360465116,0.694020640676
-5.48001587965,1.39064336889,4.1099127907,2.0564975222
-7.29739087392,0.43647511903,4.47622093023,1.61897440372
-3.0347658682,0.212306869165,3.39252906977,2.05145128525
-1.59214086248,1.5681386193,3.8188372093,6.34392816677
13.8404841432,7.85397036944,3.04514534884,8.11640504829
1.74310914897,9.05980211958,1.77145348837,6.24888192982
5.13573415469,4.55563386971,2.37776162791,8.87135881134
1.81835916041,4.00146561985,1.78406976744,6.80383569286
4.03098416613,4.61729736999,1.34037790697,5.82631257439
-0.986390828148,6.34312912013,1.61668604651,3.41878945591
-7.27376582242,1.96896087026,0.372994186046,-1.80873366256
2.6388591833,-1.3352073796,-1.66069767442,-4.12625678104
3.80148418902,-0.0793756294624,-2.36438953489,-0.523779899519
6.90410919474,2.54645612068,0.121918604651,1.678696982
0.496734200467,5.37228787081,1.01822674419,0.411173863529
9.76935920619,6.19811962095,2.47453488372,3.14365074505
5.18198421191,8.19395137109,3.00084302325,3.84612762658
2.40460921764,12.1097831212,1.86715116279,4.5886045081
2.99723422336,9.61561487136,2.56345930233,3.63108138962
3.32985922908,7.6314466215,0.329767441859,3.81355827115
2.2224842348,6.67727837164,-0.983924418606,0.966035152669
-1.13489075948,2.62311012177,-0.457616279071,-2.81148796581
-2.10226575375,-0.931058128088,-0.971308139535,-7.76901108428
-6.26964074803,-2.71522637795,-0.605,-9.74653420276
-4.88701574231,2.37060537218,-1.01869186046,-3.14405732124
-3.19439073659,-0.0435628776759,-2.04238372093,-2.58158043971
-0.471765730868,-2.62773112754,-1.68607558139,-3.12910355819
-4.74914072514,-2.2818993774,-3.43976744186,-4.57662667666
-4.95651571942,-0.736067627266,-0.773459302325,-4.73414979514
2.9961092863,-3.90023587713,-2.60715116279,-5.68167291362
4.23873429202,1.86559587301,-0.880843023255,-1.96919603209
1.30135929774,0.241427623147,-0.00453488372113,-4.35671915057
1.56398430347,4.11725937328,0.451773255814,-0.254242269046
9.08660930919,6.11309112342,-0.551918604651,4.82823461248
6.77923431491,2.80892287356,-2.73561046512,1.230711494
2.77185932063,5.2347546237,-1.55930232558,2.73318837552
6.07448432636,2.65058637383,-0.262994186047,3.41566525705
6.66710933208,0.906418123966,0.123313953489,0.898142138571
5.9297343378,1.65224987411,1.04962209302,-3.1893809799
6.97235934353,-4.53191837576,-1.87406976744,-6.35690409838
4.19498434925,-3.69608662562,-2.06776162791,-5.36442721686
0.00760935496874,-6.78025487548,-1.73145348837,-6.48195033534
-2.43976563931,-3.08442312535,-1.07514534884,-4.05947345381
-0.967140633584,-1.88859137521,-1.0288372093,-4.49699657229
-2.18451562787,1.77724037493,-2.69252906977,-3.68451969077
-2.59189062214,5.65307212507,-1.10622093023,-2.00204280924
-0.069265616421,1.83890387521,8.72093023645e-05,-2.77956592772
-2.7166406107,-2.06526437466,-3.15360465116,-5.42708904619
-8.00401560498,-2.34943262452,-3.58729651163,-6.14461216467
-0.431390599253,-2.16360087438,-4.14098837209,-4.19213528315
0.39123440647,-1.43776912424,-4.56468023256,-4.96965840162
-3.61614058781,0.328062625889,-3.45837209302,-4.5571815201
-0.133515582085,2.21389437603,-0.462063953486,-0.684704638576
7.11910942363,3.64972612616,-0.325755813952,-0.962227757052
7.47173442936,4.4855578763,-0.629447674417,0.490249124472
3.75435943508,2.43138962644,-1.65313953488,0.232726005994
5.2669844408,3.68722137657,-0.456831395346,0.59520288752
12.0596094465,2.24305312671,-0.410523255812,0.847679769042
10.6422344522,2.53888487685,-2.50421511628,-1.93984334943
5.15485945797,2.14471662699,-1.93790697674,-0.767366467911
8.81748446369,5.19054837712,-0.681598837209,3.77511041361
4.68010946942,2.06638012726,-0.205290697671,2.70758729514
-5.05726552486,-1.7677881226,-1.74898255814,-1.39993582334
-7.49464051914,-3.17195637246,-3.9926744186,-3.64745894182
-0.862015513419,-3.23612462232,-5.15636627907,-3.04498206029
2.17060949231,-2.64029287219,-6.04005813953,-3.61250517877
-0.166765501974,1.22553887795,-2.30375,-2.18002829725
2.59585950375,1.55137062809,-1.96744186046,-0.807551415721
-0.91151549053,1.75720237822,-3.57113372093,-3.1450745342
9.07110951519,-0.15696587164,-4.49482558139,2.95740234733
7.00373452092,0.828865878499,-3.26851744186,5.55987922885
5.41635952664,5.19469762863,0.897790697676,10.2423561104
6.16898453236,6.16052937877,1.66409883721,9.7748329919
13.3816095381,9.00636112891,2.50040697675,14.1373098734
3.02423454381,7.14219287904,1.71671511628,10.7997867549
5.65685954953,5.95802462918,3.33302325582,9.79226363647
9.75948455525,2.16385637932,1.03933139535,8.84474051799
4.32210956097,-1.02031187054,-0.474360465114,6.07721739951
3.1947345667,-3.76448012041,-1.98805232558,0.289694281038
-1.46264042758,-4.13864837027,-1.31174418604,-3.72782883744
-9.18001542186,-3.89281662013,-0.835436046509,-3.02535195592
-11.1973904161,-7.36698486999,-0.829127906974,-7.13287507439
-13.4647654104,-7.36115311985,-0.732819767438,-7.84039819287
-4.75214040469,-3.53532136972,1.3034883721,-6.19792131134
0.000484601026983,-1.13948961958,3.87979651163,-3.37544442982
-11.0668903932,-0.343657869442,3.14610465116,-1.1129675483
-8.19426538753,-2.08782611931,2.4324127907,1.34950933323
-7.0816403818,-0.961994369172,3.13872093024,2.81198621475
-5.63901537608,1.26383738097,3.38502906977,2.77446309627
-2.86639037036,3.67966913111,3.95133720931,3.1369399778
-5.35376536464,1.29550088124,0.31764534884,0.97941685932
-2.26114035892,0.431332631382,1.41395348838,-1.22810625916
-4.47851535319,-0.882835618486,2.67026162791,-3.97562937763
3.65410965253,2.00299613165,1.33656976745,2.67684750389
0.826734658251,3.03882788179,1.23287790698,3.16932438542
-7.29064033603,5.48465963193,1.76918604652,4.49180126694
0.231984669696,1.29049138207,0.925494186051,0.944278148461
-4.12539032459,-3.6636768678,1.92180232559,-2.22324497001
-1.30276531886,-1.73784511766,2.27811046512,-0.67076808849
-1.86014031314,-3.97201336752,-1.22558139535,-1.48829120697
-3.92751530742,-4.47618161739,-1.90927325581,-2.53581432544
0.385109698305,-4.56034986725,-2.39296511627,0.19666255608
2.71773470403,-8.06451811711,-1.85665697674,-0.510860562397
1.59035970975,-5.41868636697,0.809651162794,-1.72838368087
3.53298471548,-6.75285461684,0.99595930233,-0.715906799349
-6.9343902788,-5.1170228667,2.05226744186,-2.12342991783
-5.24176527308,-4.39119111656,4.8085755814,0.809046963699
-3.88914026736,-0.545359366424,3.65488372093,2.32152384522
-1.78651526164,0.000472383711895,2.38119186047,0.734000726745
5.58850290698,3.31050145349,-0.910381540702,0.539603924415
5.47647185727,4.22874650934,-0.633873317622,1.49828880356
8.58444080755,6.87699156519,1.11263490546,3.5069736827
10.5024097578,6.46523662104,1.67914312854,4.54565856184
12.0403787081,6.84348167689,2.00565135162,4.99434344099
4.0583476584,2.20172673274,-1.65784042529,-1.02697167987
5.28631660868,3.30997178859,-1.55133220221,0.751713199274
2.73428555897,-4.96178315556,-0.924823979129,-2.24960192158
0.882254509248,-5.3035380997,-2.62831575605,-4.40091704244
-1.28977654047,-2.16529304385,-1.77180753297,-2.0322321633
-1.78180759018,-0.497047988003,-0.875299309884,-2.02354728415
-0.0438386398964,-0.428802932151,-0.998791086802,-0.90486240501
6.99413031039,2.8894421237,-0.18228286372,3.49382247413
5.52209926067,0.267687179548,-1.67577464064,2.41250735328
0.670068210951,-3.8740677646,-2.82926641756,-3.73880776758
0.578037161238,-2.18582270875,-1.90275819447,-3.26012288844
-0.113993888477,2.1424223471,-1.12624997139,-0.531438009295
3.83397506181,-1.81933259705,-1.29974174831,-2.75275313015
8.95194401209,2.4389124588,-0.553233525228,-2.11406825101
9.39991296237,5.64715751465,-0.206725302147,1.99461662814
1.19788191266,0.3654025705,0.159782920935,0.183301507277
-2.18414913706,-1.38635237365,1.25629114402,-3.13801361358
-6.56618018678,-1.9281073178,0.332799367099,-2.60932873444
-7.21821123649,-5.72986226195,-1.00069240982,-4.00064385529
-7.80024228621,-4.1716172061,-0.144184186738,-4.13195897615
4.37772666408,-4.07337215024,-1.78767596365,-3.94327409701
-1.83430438564,-6.85512709439,-4.46116774057,-8.75458921786
-18.7363354354,-6.94688203854,-4.65465951749,-8.04590433872
-1.36836648507,-4.20863698269,-2.76815129441,-3.26721945958
-5.60039753479,-4.86039192685,-1.93164307133,-4.74853458044
7.83757141549,-3.68214687099,-1.05513484825,-1.70984970129
-10.9444596342,-5.48390181514,-0.328626625162,-5.79116482215
-11.2164906839,-7.72565675929,-1.17211840208,-11.402479943
-21.7385217337,-7.10741170344,-1.295610179,-11.3637950639
-7.64055278337,-6.70916664759,-2.10910195592,-9.29511018472
-7.51258383309,-8.73092159174,-3.20259373284,-8.62642530558
-5.47461488281,-8.67267653589,-2.89608550975,-9.12774042643
-7.08664593252,-8.29443148004,-3.24957728667,-9.03905554729
-1.11867698224,-5.64618642419,-1.09306906359,-7.39037066815
0.889291968047,-0.127941368341,2.38343915949,1.808314211
7.51726091833,-4.33969631249,0.559947382573,2.49699909014
-15.7047701314,3.02854874336,4.20645560566,2.55568396928
-14.3168011811,1.33679379921,2.05296382874,2.10436884842
-5.60883223082,1.87503885506,-0.420527948179,3.73305372757
-1.31086328053,1.59328391092,-0.774019725097,1.98173860671
3.46710566975,2.95152896677,-0.387511502016,1.26042348586
-5.96492537997,-2.20022597739,-1.96100327893,-3.780891635
-7.12695642969,1.54801907846,2.53550494415,1.48779324414
-6.1689874794,0.266264134312,0.712013167229,-0.123521876716
-10.0010185291,-3.89549080983,-0.231478609689,-3.21483699757
-8.05304957883,1.34275424602,0.715029613395,0.733847881569
-2.75508062855,1.50099930186,-1.77846216352,1.55253276071
-4.70711167826,-1.48075564229,-1.44195394044,0.141217639855
0.250857272018,-4.86251058643,-3.12544571736,1.499902519
1.9088262223,-1.83426553058,-2.64893749428,3.01858739814
-3.79320482741,-4.25602047473,-4.9224292712,-0.592727722713
-2.54523587713,-2.09777541888,-1.96592104811,0.495957156429
-9.25726692685,-0.989530363033,0.150587174969,1.99464203557
15.2907020234,3.49871469282,1.36709539805,8.11332691472
17.1386709737,3.64695974867,1.88360362113,5.95201179386
-7.94336007599,-0.494795195478,0.510111844214,1.900696673
8.59460887429,3.07344986037,1.94662006729,6.47938155215
3.21257782458,4.54169491622,1.04312829038,5.86806643129
0.680546774856,7.68993997207,6.05963651346,9.77675131043
4.76851572514,9.01818502792,5.61614473654,9.10543618957
3.29648467543,5.79643008377,2.97265295962,7.06412106872
10.9544536257,11.5046751396,5.2091611827,11.8428059479
8.18242257599,9.98292019547,4.57566940579,13.441490827
4.05039152627,7.49116525133,2.79217762887,10.2401757061
14.2783604766,6.80941030717,4.14868585195,11.7488605853
5.53632942684,8.81765536303,2.78519407503,15.0375454644
8.89429837713,8.94590041888,4.09170229811,14.6262303436
14.6322673274,11.0341454747,7.5282105212,14.9049152227
11.6402362777,7.72239053058,4.55471874428,11.4636001019
11.408205228,9.05063558643,2.96122696736,9.752284981
0.61617417826,7.02888064228,1.82773519044,9.46096986015
-1.98585687146,8.23712569813,3.26424341353,9.29965473929
-1.13788792117,4.29537075398,2.81075163661,7.47833961843
14.6400810291,4.80361580983,3.68725985969,10.0670244976
5.0480499794,1.79186086568,2.71376808277,4.69570937672
-3.71398107032,-0.57989407847,3.35027630585,3.30439425587
-1.02601212004,-3.51164902262,2.70678452893,-3.22692086499
-7.15804316975,-3.07340396677,3.50329275202,-1.39823598585
0.489925780534,-2.14515891092,3.7498009751,0.650448893293
-0.792105269182,-0.58691385507,4.49630919818,-1.08086622756
6.6758636811,3.94133120078,5.56281742126,2.31781865158
9.33383263138,5.98957625663,6.25932564435,5.90650353072
-6.69819841833,2.67782131249,4.36583386742,2.36518840987
10.619770532,1.32606636833,1.09234209051,0.933873289008
-18.3522605178,-0.875688575816,1.94885031359,-6.04744183185
-9.74429156748,0.232556480034,4.50535853667,-7.16875695271
-3.7563226172,-2.53919846411,3.17186675975,-8.16007207356
-8.87835366691,-7.53095340826,0.638374982835,-11.1613871944
-4.70038471663,-4.37270835241,-0.0451167940828,-7.12270231528
-1.68241576635,-0.754463296566,0.651391429001,-4.58401743613
-3.11444681606,-0.496218240714,0.90789965208,-3.11533255699
-7.60647786578,0.302026815138,-0.865592124837,-0.746647677846
-11.2785089155,-1.91972812901,-1.48908390175,-6.3379627987
-10.1605399652,-2.42148307316,-1.27257567867,-7.08927791956
0.407428985072,-2.82323801731,-1.35606745559,-2.96059304042
0.535397935357,-6.20499296146,-2.41955923251,-7.25190816128
0.583366885639,2.79325209439,-0.713051009427,0.536776717869
-0.538664164076,-2.19850284976,-1.73654278634,-2.75453840299
-2.26069521379,-4.78025779391,-3.71003456326,-6.66585352384
-9.32272626351,-0.762012738061,-1.82352634018,-2.3571686447
-4.18475731323,1.30623231779,0.2429818829,-0.918483765558
-5.16678836294,3.95447737364,-0.510509894017,1.47020111359
3.03118058734,-0.447277570507,-0.0140016709356,1.41888599273
9.01914953762,0.250967485343,-0.737493447854,2.46757087187
8.56711848791,-1.58078745881,-3.61098522477,-0.113744248987
8.65508743819,1.62745759705,-4.18447700169,-1.68505936984
12.4130563885,1.6157026529,-3.34796877861,0.923625509298
-2.02897466124,-3.23605229126,-4.59146055552,-5.37768961156
0.198994289043,-3.80780723541,-3.93495233244,-3.43900473241
-2.88303676067,-2.04956217956,-2.94844410936,-1.97031985327
1.35493218961,-2.7713171237,-2.96193588628,-2.80163497413
1.8229011399,0.956927932148,-1.5454276632,-0.332950094984
1.20087009018,0.885172987997,-1.73891944011,-0.714265215842
6.04883904046,2.99341804385,-1.43241121703,1.8944196633
6.02680799075,-0.248336900306,-2.25590299395,-2.13689545756
2.53477694103,-0.0400918444502,-2.46939477087,-3.07821057841
-1.42725410868,-0.311846788602,-1.70288654779,-0.26952569927
-6.6592851584,-0.883601732752,-0.616378324707,-1.73084082013
-5.76131620812,-4.9153566769,-2.30987010162,-3.12215594098
1.13665274216,-1.92711162105,-2.32336187854,-1.72347106184
2.59462169245,-3.8088665652,-2.04685365546,-4.5447861827
-1.11740935727,-5.22062150935,-2.66034543238,-5.59610130355
1.00055959302,-9.2123764535,-3.4538372093,-5.37741642441
-7.359375,-7.76285610464,-1.44162790698,-5.5266133721
-8.52589197834,-10.7454267762,-2.82214853049,-7.95965267923
-10.4024089567,-9.1879974478,-1.97266915401,-9.75269198636
0.541074064964,-8.65056811938,-0.243189777517,-8.2557312935
-2.70544291338,-3.67313879096,4.21628959897,-1.99877060063
0.688040108271,-4.81570946254,3.59576897546,-4.14180990776
2.65152312992,-4.75828013412,2.41524835195,-0.63484921489
2.93500615158,-0.580850805702,3.36472772844,1.75211147798
1.74848917323,-3.29342147728,4.30420710492,3.56907217085
9.60197219488,-4.23599214886,2.37368648141,7.29603286371
-0.104544783462,-2.31856282044,2.8431658579,7.25299355658
2.57893823819,-3.17113349202,1.60264523439,2.26995424945
-6.43757874015,0.796295836397,0.312124610875,3.89691494232
-6.3940957185,-0.606274835183,3.33160398736,4.59387563518
4.41938730315,3.34115449324,4.10108336385,4.30083632805
-8.03712967519,2.50858382166,2.61056274034,2.37779702092
13.5963533465,3.23601315008,2.39004211683,5.50475771378
14.7298363681,5.2434424785,0.919521493315,5.79171840665
10.9833193898,3.63087180692,0.439000869803,2.61867909952
3.87680241142,2.66830113533,0.648480246291,4.89563979239
5.37028543307,6.79573046376,2.41795962278,6.19260048526
-4.80623154527,0.783159792172,2.40743899927,-4.04043882188
6.51725147638,3.14058912059,2.18691837575,-1.78347812901
-1.08926550197,7.04801844901,2.39639775224,3.37348256386
0.164217519687,7.42544777743,4.23587712873,2.64044325673
8.80770054134,4.27287710585,4.61535650522,2.12740394959
10.631183563,5.29030643427,3.5748358817,2.36436464246
-7.49533341535,3.42773576269,1.32431525819,0.381325335331
1.9981496063,3.56516509111,-0.74620536532,1.5182860282
9.23163262795,4.16259441953,1.31327401117,2.74524672107
2.16511564961,2.48002374795,1.39275338766,-0.267792586066
-1.53140132874,2.71745307637,-0.977767235856,-2.9108318932
1.21208169291,2.42488240479,-1.94828785937,-3.22387120033
-1.45443528544,1.37231173321,-0.0188084828787,-0.496910507463
-4.79095226378,0.399741061628,0.250670893609,-0.269949814596
2.85253075787,2.69717039005,-1.7298497299,0.937010878273
-2.74398622047,-1.21540028153,-2.33037035342,-1.23602842886
-2.66050319882,-0.837970953111,-1.45089097693,-0.139067735992
5.27297982284,1.60945837531,-1.08141160044,2.13789295687
5.33646284449,2.52688770373,-0.671932223953,3.92485364974
7.11994586614,1.80431703215,0.497547152534,2.20181434261
-6.2565711122,1.91174636057,-0.412973470977,-3.00122496452
-4.22308809055,3.68917568899,-0.773494094488,-4.32426427165
6.0003949311,2.7066050174,-2.394014718,-2.37730357879
-10.0761220472,-0.745965654176,-2.83453534151,-5.87034288592
-3.30263902559,3.97146367424,-0.525055965025,-3.05338219305
13.0108439961,6.59889300267,0.174423411463,0.773578499819
4.03432701771,8.80632233108,1.85390278795,2.82053919269
12.4378100394,4.3837516595,-2.33661783556,0.587499885552
5.73129306102,3.66118098792,-3.20713845907,-0.465539421579
-1.20522391732,7.20861031634,-3.50765908259,0.651421271288
2.31825910433,5.63603964476,-4.0881797061,2.86838196416
-3.51825787401,0.423468973182,-4.43870032961,0.185342657023
-5.60477485236,-0.429101698403,-4.76922095312,-1.37769665011
-4.71129183071,0.0183276300195,-1.82974157663,-3.62073595724
0.0621911909438,-4.01424304156,-3.57026220015,-6.45377526437
-1.4843257874,-3.41681371314,-3.56078282366,-2.0368145715
2.25915723425,-1.47938438472,-4.89130344717,0.670146121363
-1.6273597441,1.1780449437,-3.21182407068,-0.852893185769
-5.70387672244,-1.93452572788,-4.86234469419,-1.1159324929
2.33960629921,-2.74709639946,-4.72286531771,1.58102819997
6.60308932086,1.97033292896,-2.74338594122,2.09798889283
0.62657234252,5.15776225737,-2.13390656473,6.8849495857
-4.98994463583,-1.1748084142,-0.474427188245,2.43191027857
-0.436461614172,-3.22737908578,0.825052188246,0.648870971436
5.59702140748,-0.0199497573667,1.52453156473,6.2058316643
3.94050442913,2.40747957105,0.704010941221,5.33279235717
0.463987450785,1.66490889947,0.0934903177076,0.509753050039
-11.0225295276,-0.477661772104,-2.1670303058,0.816713742906
5.33095349409,-1.74023244369,-3.04755092932,3.59367443578
-2.81556348426,-3.79280311527,-2.28807155283,-0.589364871357
-10.9920804626,-3.35537378685,-2.60859217634,-0.502404178489
-3.77859744095,-1.79794445843,-4.41911279985,2.62455651438
-3.1851144193,-0.710515130006,-1.20963342336,1.13151720725
-2.52163139764,1.85691419841,0.599845953122,-0.171522099887
-2.25814837599,-2.25565647317,-1.83067467039,-3.27456140702
-5.30466535433,-3.08822714475,-1.7711952939,-2.26760071415
-8.06118233268,-4.32079781633,-2.33171591741,-5.20064002128
-0.397699311026,-5.15336848791,-1.83223654092,-4.64367932842
-11.3042162894,-4.02593915949,0.257242835563,-5.15671863555
-17.8207332677,-3.10850983107,-0.143277787949,-6.29975794268
-2.44725024607,-3.54108050265,-1.83379841146,-5.51279724981
-1.96376722441,-3.65365117423,-2.36431903497,-4.44583655694
-15.0802842028,-5.91622184581,-3.09483965849,-4.43887586408
-6.3968011811,-9.87879251739,-2.635360282,-6.88191517121
-16.8633181594,-6.15136318897,-0.825880905511,-7.08495447834
-12.2398351378,-5.53393386056,-2.35640152902,-2.87799378547
0.203647883853,-4.93650453213,-2.57692215254,-3.73103309261
-11.8728690945,-6.36907520371,-1.58744277605,-4.87407239974
-3.04938607284,-2.4216458753,-1.12796339956,-0.777111706871
3.07409694882,-0.0942165468732,0.121515976929,0.739848985997
-4.89242002953,2.51321278155,1.97099535342,-1.63319032114
-11.5989370079,2.73064210996,2.80047472991,-1.89622962827
1.58454601378,0.0680714383852,2.17995410639,-1.6292689354
-6.49197096457,-3.4444992332,-0.320566517119,-2.68230824253
-5.95848794292,-3.87706990478,0.648912859368,-1.61534754966
-1.65500492126,-3.72964057636,1.41839223586,-0.118386856797
-0.79152189961,1.00778875206,1.10787161234,2.62857383607
2.22196112204,-1.18478191952,-1.23264901117,0.375534528939
5.7254441437,-7.8773525911,-1.18316963468,-2.66750477819
-1.81107283465,-1.12992326268,0.16630974181,0.549455914674
5.002410187,-1.58249393426,-1.0742108817,-2.06358339246
3.27589320866,-2.56506460584,-1.49473150522,-4.63662269959
-3.12062376969,-3.89763527742,-1.46525212873,-4.31966200672
-0.517140748034,-5.710205949,1.24422724776,-4.72270131385
7.88634227362,-4.64277662058,0.963706624247,-3.60574062099
3.13982529527,-6.52534729216,-0.0368139992643,-3.15877992812
-1.10669168308,-6.43791796374,-1.19733462278,-0.21181923525
6.88679133858,-1.37048863532,-1.13785524629,5.17514145762
12.1102743602,-0.393059306902,0.901624130198,1.44210215048
5.60375738188,5.34437002152,3.41110350669,4.31906284335
13.0172404035,7.17179934993,2.79058288318,7.20602353622
-0.349276574809,6.16922867835,2.10006225966,5.53298422909
-2.05579355316,9.86665800677,3.84954163615,6.70994492195
11.0376894685,8.36408733519,6.13902101264,7.51690561482
0.99117249015,8.09151666362,7.72850038913,4.09386630769
-2.27534448819,6.52894599204,4.98797976561,0.450827000557
-9.14186146654,3.90637532045,1.2674591421,-0.282212306574
-3.35837844489,0.833804648872,-0.133061481411,1.16474838629
6.20510457677,-0.758766022707,1.34641789508,2.59170907916
-2.36141240158,-3.04133669429,-1.17410272844,-0.76133022797
-2.72792937993,-0.423907365868,1.06537664805,-0.404369535103
3.61555364172,-1.61647803745,-0.46514397546,-0.0674088422347
-1.82096333662,0.55095129097,-0.50566459897,-2.44044814937
-3.56748031497,-1.22161938061,0.463814777519,-2.7234874565
22.7760027067,6.27580994781,4.31329415401,7.01347323637
11.5094857283,5.51323927623,4.67277353049,5.99043392924
13.00296875,5.24066860465,2.42225290698,4.9773946221
-0.869291424406,2.47233648256,-4.71969476744,4.21825944767
8.0436477122,2.76720372299,-4.14123500732,4.72999945637
9.7865868488,0.352070963425,-6.19277524721,2.08173946507
7.33952598541,0.336938203855,-8.45431548709,-2.01652052623
3.94246512201,-1.66819455571,-9.68585572697,-3.47478051754
0.765404258618,-2.20332731528,-8.01739596686,1.02695949116
-3.78165660478,-5.98846007484,-6.47893620674,-1.95130050014
-5.49871746817,0.536407165582,-3.01047644662,0.520439508558
4.93422166843,5.21127440602,-0.942016686504,5.74217951726
-0.842839194964,3.40614164645,-1.68355692639,-0.366080474047
-7.52990005836,5.07100888688,-0.565097166269,0.965659534653
-2.54696092175,7.04587612731,-0.0566374061527,7.46739954335
2.65597821485,8.52074336774,-0.148177646035,7.92913955205
4.75891735145,10.3856106082,1.98028211408,6.91087956075
-0.748143511941,14.3004778486,5.5487418742,12.5626195694
1.32479562467,12.225345089,5.65720163432,12.5343595781
-1.78226523873,8.37021232948,3.77566139443,8.54609958684
2.88067389787,9.39507956991,5.49412115455,7.81783959554
0.733613034477,4.83994681034,4.19258091467,1.66957960424
3.14655217109,9.00481405077,4.44104067478,4.25131961293
0.0794913076898,1.5296812912,0.819500434902,-1.05694037837
4.3424304443,-0.835451468363,2.68796019502,-2.06520036967
8.5853695809,-2.82058422793,4.11641995514,-1.91346036097
-1.1416912825,-4.0257169875,0.564879715253,-1.57172035227
-7.75875214589,-4.22084974707,-1.56666052463,-3.24998034357
-1.73581300929,0.794017493365,1.05179923549,0.961759665122
13.6371261273,-0.301115266204,0.730258995605,4.28349967382
2.37006526392,0.423751974224,0.818718755723,1.32523968252
3.53300440053,-1.04138078534,1.35717851584,0.386979691217
11.7059435371,0.903486455092,0.545638275957,1.28871969992
5.10888267374,2.47835369552,3.44409803607,1.66045970861
7.74182181034,1.31322093596,3.60255779619,2.15219971731
-4.51523905305,0.478088176384,2.53101755631,1.40393972601
4.24770008355,-0.727044583182,3.34947731643,0.565679734707
-9.31936077984,2.96782265725,4.53793707654,1.96741974341
5.58357835676,-0.0673101023167,2.80639683666,-0.430840247896
2.98651749337,-0.202442861882,3.27485659678,1.0108997608
1.81945662997,0.772424378549,1.91331635689,2.9326397695
3.60239576657,-0.702708381021,2.53177611701,1.6043797782
-6.25466509682,-5.45784114059,-0.549764122872,-4.7338802131
-5.93172596021,-7.53297390016,-1.16130436275,-5.43214020441
-4.52878682361,-10.8081066597,-0.982844602637,-6.60040019571
-12.065847687,-7.85323941929,1.89561515748,-5.33866018701
-0.822908550399,-9.09837217886,1.2640749176,-8.58692017831
-9.3399694138,-6.66350493843,0.372534677714,-9.90518016961
-11.5170302772,-2.538637698,1.80099443783,-7.77344016092
-9.66409114058,-5.21377045756,1.59945419795,-8.85170015222
-5.22115200398,-4.47890321713,0.827913958066,-5.07996014352
5.19178713262,-0.134035976702,-0.113626281816,2.51177986518
11.1747262692,-2.11916873627,-0.6751665217,2.25351987388
-7.13233459416,-1.70430149584,-0.736706761581,-2.11474011742
6.79060454244,-7.0894342554,0.551752998535,-1.60300010873
5.19354367904,-12.714567015,0.300212758653,-6.53126010003
-2.65351718435,-14.6396997745,-1.04132748123,-10.2695200913
-11.8405780477,-11.5848325341,-1.17286772111,-10.2077800826
-7.37763891114,-7.26996529368,0.405592039004,-8.92604007393
0.325300225464,-7.80509805324,-0.595948200878,-9.44430006524
-2.73176063793,-2.25023081281,0.292511559239,-3.24256005654
1.69117849867,-0.0353635723804,-1.09902868064,-3.27082004784
4.83411763528,-3.78049633195,-4.30056892053,-6.31908003914
-4.80294322812,-1.00562909152,-0.97210916041,-6.43734003044
-10.3700040915,-6.18076185108,-2.40364940029,-9.03560002175
-1.36706495491,-9.51589461065,-3.52518964018,-10.563860013
4.4158741817,-3.92102737022,-0.956729880058,-4.38212000435
-2.7411866817,1.83383987021,1.30172988006,-1.32037999565
-11.2582475451,0.828707110646,1.70018964018,-1.32863998695
-3.06530840849,-0.856425648923,0.158649400293,-2.36689997825
-0.852369271885,-2.53155840849,-0.29289083959,-3.00515996956
-8.87943013528,-2.86669116806,1.06556892053,-3.34341996086
-17.4264909987,-4.93182392763,0.904028680647,-6.66167995216
-5.42355186207,-3.25695668719,1.21248844076,-6.73993994346
-13.1906127255,-5.30208944676,1.64094820088,-5.59819993476
-7.06767358886,-2.50722220633,2.079407961,-3.86645992607
-9.97473445225,-3.2623549659,1.13786772111,-2.55471991737
-5.46179531565,-1.64748772547,1.16632748123,-4.30297990867
-7.40885617904,-4.54262048503,0.894787241348,-4.27123989997
-4.93591704244,-9.3677532446,-2.03675299853,-5.34949989127
-2.86297790584,-9.34288600417,-2.10829323842,-5.82775988258
2.40996123077,-6.38801876374,0.260166521701,-2.34601987388
9.15290036737,-3.31315152331,-2.12137371818,4.14572013482
-5.84416049602,0.961715717127,-2.38291395807,1.45746014352
10.1287786406,7.57658295756,2.70554580205,8.37920015222
7.60171777719,3.85145019799,2.05400556217,5.78094016091
-12.7253430862,4.46631743842,0.662465322286,3.47268016961
1.6275960504,2.77118467886,-0.479074917597,2.12442017831
10.670535187,2.05605191929,-0.630615157479,0.076160187009
2.62347432361,4.36091915972,1.39784460264,4.00790019571
-7.71358653979,3.38578640015,-0.483695637246,3.5496402044
9.09935259682,6.28065364058,1.81476412287,7.2513802131
6.32229173342,9.85552088101,3.06322388299,9.8831202218
3.20523087003,11.2303881214,4.16168364311,10.3848602305
-2.11182999337,4.77525536188,2.05014340322,1.0866002392
4.03110914324,7.17012260231,1.68860316334,3.19834024789
6.95404827984,9.54498984274,0.0370629234585,5.54008025659
8.97698741645,10.5998570832,-0.654477316424,7.27182026529
11.1699265531,7.61472432361,-2.49601755631,7.11356027399
2.31286568966,7.90959156404,-1.04755779619,5.33530028269
-4.91419517374,5.94445880447,-0.669098036075,4.38704029139
8.73874396287,4.8993260449,-1.56063827596,5.54878030009
1.69168309947,6.94419328534,-2.59217851584,7.19052030878
2.96462223608,4.57906052577,-1.57371875572,4.50226031748
9.01756137268,4.0639277662,-1.37525899561,1.72400032618
8.17050050928,-0.441204993367,-5.52679923549,-1.70425966512
3.13343964589,-0.346337752937,-4.30833947537,1.97748034358
5.16637878249,0.488529487495,-2.46987971525,2.38922035227
-3.4206820809,-1.63660327207,-2.57141995513,-1.25903963903
-3.1577429443,-4.80173603164,-3.17296019502,-4.12729963033
-13.2048038077,-8.03686879121,-4.3145004349,-6.03555962163
-5.09186467109,-10.2620015508,-4.13604067478,-6.82381961294
-3.25892553448,-6.25713431034,-3.22758091467,-4.22207960424
-5.90598639788,-0.73226706991,-1.54912115455,0.179660404461
6.09695273873,1.71260017052,0.059338605568,5.80140041316
12.5898918753,4.97746741095,1.59779836568,10.8031404219
6.84283101194,6.03233465139,0.246258125802,12.1148804306
9.59577014854,5.94720189182,0.404717885918,10.7666204393
-5.61129071485,-0.367930867749,0.173177646036,0.898360447953
3.28164842175,1.33693637268,1.18163740615,1.27010045665
8.50458755836,1.36180361312,1.36009716627,1.15184046535
1.83752669496,0.966670853548,0.348556926387,-2.27641952595
0.900465831568,5.88153809398,2.78701668651,3.28532048274
4.76340496817,2.69640533441,1.86547644662,1.17706049144
-0.133655895221,1.92127257484,2.12393620674,-3.97119949986
-2.96071675862,-3.28386018473,-1.17760403314,-8.35945949116
-1.86777762201,-1.75899294429,-1.11914427303,-1.86771948246
3.06516151459,0.195874296136,0.26931548709,1.21402052623
0.788100651196,0.40074153657,2.47777524721,1.89576053493
-9.07896021219,-2.724391223,2.49623500733,-2.38249945637
-9.46602107559,-6.35952398257,0.394694767441,-8.96075944767
17.4145219048,4.48009142858,3.60033904761,1.73416380951
8.7069909063,3.15797253458,2.9442935791,-0.559807864833
3.07945990784,4.16585364056,3.83824811059,-0.883779539179
