-7.10017805232,8.48114825583,8.01500363371,11.5514026163
-7.9940938015,2.08898081282,4.26095584027,2.40191079358
-9.37800955067,0.466813369811,3.20690804682,1.36241897088
-9.64192529985,0.414645926809,2.27286025338,2.00292714819
-6.81584104903,-2.9375215162,1.32881245993,1.10343532549
-7.3897567982,-1.6996889592,1.62476466649,2.38394350279
-8.82367254738,-2.6518564022,0.200716873045,0.674451680094
-6.93758829655,-3.91402384521,-1.4133309204,-1.0350401426
-2.75150404573,-3.46619128822,-1.76737871384,-0.284531965301
-0.605419794909,-5.42835873122,-2.55142650729,-0.714023787999
-3.07933554408,-7.09052617423,-2.50547430073,-3.3435156107
-5.42325129326,-7.29269361723,-2.54952209418,-5.41300743339
-4.38716704244,-8.13486106024,-3.01356988762,-8.01249925609
-5.01108279161,-5.43702850325,-2.65761768106,-5.76199107879
-2.65499854079,-2.50919594625,-2.03166547451,-0.901482901485
-1.22891428996,-3.24136338925,-1.71571326795,-2.27097472418
-6.36283003914,-2.31353083226,-0.239761061399,-2.75046654688
-6.57674578832,-3.86569827526,-0.643808854842,-3.40995836958
-3.34066153749,-6.27786571827,-1.23785664828,-4.29945019227
-6.05457728667,-7.25003316128,-1.82190444173,-5.32894201497
-6.96849303585,-4.61220060428,-1.64595223518,-5.94843383767
-2.32240878502,-2.38436804728,-2.31000002862,-2.01792566037
0.933675465803,0.973464509712,-3.18404782206,-2.56741748306
4.68975971662,0.621297066707,-3.89809561551,-2.10690930576
2.14584396745,1.4791296237,-2.75214340895,1.68359887154
-2.40807178173,-1.5330378193,-0.766191202394,-0.205892951155
-3.4119875309,-0.835205262309,0.979761004161,-1.58538477385
0.344096719924,2.06262729469,2.16571321072,-0.0948765965495
-1.05981902925,5.49045985168,2.19166541727,1.77563158075
-0.313734778429,6.07829240867,3.03761762383,2.56613975806
0.272349472394,3.69612496567,2.70356983038,0.726647935358
0.538433723217,4.25395752267,1.65952203694,2.16715611266
3.65451797404,2.25179007966,0.655474243496,1.41766428997
1.29060222487,4.13962263666,2.26142645005,3.68817246727
-1.57331352431,4.52745519365,2.84737865661,1.57868064457
-4.66722927349,1.53528775064,2.95333086316,-1.85081117813
-0.601145022665,1.09312030764,1.92928306972,0.259696999174
0.324939228161,0.340952864633,-0.544764723723,-0.729794823521
-0.478976521015,2.09878542163,-1.07881251717,-0.449286646221
-2.24289227019,6.12661797863,0.567139689385,2.53122153108
-1.80680801937,4.83445053562,1.55309189594,0.931729708385
-0.33072376854,4.21228309261,1.2190441025,-0.097762114312
-0.50463951772,1.94011564961,0.484996309049,-4.51725393701
-0.928555266895,0.387948206604,0.370948515607,-7.13674575971
-0.74247101607,0.995780763602,-1.01309927784,-5.9162375824
1.36361323475,-0.406386679406,-0.787147071278,-4.8557294051
3.26969748558,-0.398554122414,-0.241194864724,-4.5752212278
4.1857817364,4.50927843458,1.76475734183,0.865286949505
7.34186598722,4.89711099158,2.84070954839,0.765795126807
10.0279502381,2.59494354857,1.96666175494,-0.72369669589
8.53403448887,2.83277610557,1.7726139615,1.14681148141
6.4201187397,0.69060866256,0.588566168051,-2.03268034128
2.71620299052,-3.30155878044,-0.435481625391,-8.79217216398
1.64228724134,-3.14372622345,-1.37952941883,-7.75166398668
3.29837149217,-4.71589366645,-2.67357721228,-6.56115580938
3.82445574299,-6.49806110945,-2.80762500572,-7.28064763207
3.38053999381,-3.25022855246,-2.11167279917,-4.48013945477
5.52662424464,-0.692395995469,-1.32572059261,-1.01963127747
7.96270849546,-0.174563438472,-1.36976838606,0.490876899834
8.48879274629,-0.506730881476,-1.2338161795,-0.018614922863
10.7748769971,-1.05889832448,-0.767863972946,0.671893254439
12.4109612479,-1.85106576749,-1.81191176639,-0.107598568256
12.6770454988,-3.0332332105,-1.63595955983,-2.01709039095
14.3331297496,-1.9254006535,-0.960007353275,1.68341778635
11.7992140004,-0.337568096504,-0.514055146719,0.713925963651
9.38529825123,1.60026446049,0.651897059834,0.774434140953
8.11138250205,1.55809701749,1.89784926639,2.88494231826
8.20746675288,3.95592957448,2.64380147295,3.36545049556
9.6635510037,5.26376213148,1.1197536795,4.72595867286
13.0896352545,1.76159468847,0.635705886056,3.86646685016
12.0157195054,2.36942724547,0.521658092614,6.19697502747
16.6718037562,4.45725980246,0.11761029917,12.1374832048
19.027888007,3.01509235946,0.183562505725,9.95799138207
17.4439722578,5.61292491645,-1.20048528772,9.56849955938
14.1800565086,4.43075747344,-1.91453308117,7.74900773668
17.5361407595,0.818590030442,-1.61858087461,4.31951591398
14.9722250103,-0.623577412563,-0.522628668052,2.00002409128
8.11830926112,1.34425514443,-0.346676461497,2.80053226859
6.19439351194,3.66208770143,-0.720724254941,5.67104044589
4.75047776277,3.63992025842,-0.314772048387,7.80154862319
0.0865620135883,4.24775281542,-0.62881984183,8.87205680049
-0.757353735586,5.66558537241,-0.582867635272,5.9725649778
1.98873051524,3.01341792941,-0.556915428715,4.2030731551
1.77481476606,3.5812504864,0.309036777835,6.8935813324
-2.60910098311,6.26908304339,1.78498898439,7.22408950971
0.506983267711,6.32691560039,1.50094119095,6.85459768701
3.71306751853,5.30474815738,0.386893397506,7.91510586431
-1.25084823064,3.41258071438,0.18284560406,7.54561404161
-5.02476397982,0.670413271375,-0.661202189385,5.05612221892
-8.618679729,-3.59175417163,-2.92524998283,0.886630396219
-7.27259547817,-7.72392161464,-4.83929777627,-2.96286142648
-10.6865112273,-4.53608905764,-3.83334556971,-1.34235324918
-17.3004269765,0.631743499354,-1.41739336316,-0.0318450718732
-15.4143427257,0.349576056349,-0.391441156607,-1.41133689457
-17.8482584749,0.287408613345,-0.00548895004977,1.07917128273
-17.7321742241,-1.31475882966,-1.59953674349,-0.420320539964
-6.68608997323,-2.35692627267,-2.55358453694,-1.36981236266
0.0499942775932,-1.43909371567,-1.18763233038,-1.35930418536
-0.75392147158,0.378738841326,2.16831987617,1.71120399194
-6.00783722076,0.436571398321,3.61427208273,-0.398287830754
-7.32175296993,2.56440395531,4.40022428929,1.80222034655
-5.52566871911,4.56223651231,4.64617649584,7.22272852385
-6.18958446829,3.9000690693,2.9721287024,6.70323670115
-4.08350021746,3.3879016263,-0.00191909104615,2.87374487846
-1.48741596664,1.25573418329,-1.18596688449,-1.02574694424
-3.96133171581,1.10356674029,-0.800014677938,-1.50523876694
-1.92524746499,0.551399297281,-1.78406247138,-0.984730589635
-1.09916321416,1.18923185428,-0.928110264824,0.325777587668
-3.48307896334,0.547064411272,0.02784194173,2.14628576497
-2.35699471252,-0.765103031732,1.26379414829,1.26679394227
-2.9209104617,0.622729525265,1.48974635484,2.28730211958
-2.01482621087,0.540562082257,1.2156985614,0.417810296878
-1.51874196004,-3.00160536075,-0.748349232046,-7.23168152582
-3.17265770922,-3.42377280375,-0.472397025489,-6.57117334852
-3.3465734584,-4.12594024676,-0.546444818938,-3.05066517121
-1.44048920757,-4.94810768976,-0.0904926123803,-4.63015699391
0.64559504325,-1.43027513277,1.98545959418,-1.41964881661
-0.228320705926,0.567557424227,2.59141180073,0.380859360695
-0.672236455106,0.435389981219,1.49736400729,0.0613675379973
-0.956152204279,-0.876777461785,1.14331621384,-0.358124284701
-0.640067953453,-3.63894490479,-0.1307315796,-3.9576161074
-2.93398370263,-6.49111234779,-1.29477937305,-9.17710793009
-2.70789945181,-5.8632797908,-0.958827166487,-6.55659975279
-6.08181520098,-6.6954472338,-0.0628749599346,-7.50609157549
-7.10573095016,-5.55761467681,-0.506922753379,-8.49558339819
-1.95964669934,-5.04978211982,-0.0609705468232,-8.21507522088
-2.37356244851,-3.48194956282,0.204981659735,-7.35456704358
-4.91747819769,-0.304117005824,0.210933866292,-4.36405886628
8.40431686047,2.59025799419,3.21999636626,0.534051598836
2.85245753983,1.69770471869,3.04955720105,0.677618453577
0.480598219197,-1.33484855681,2.20911803583,-3.95881469168
0.0987388985632,-2.64740183231,0.348678870614,-4.62524783694
-0.373120422075,-3.10995510781,-0.161760294603,-4.1616809822
-1.11497974271,-2.36250838331,-0.242199459823,-2.74811412745
-2.30683906335,-2.0450616588,0.88736137496,-5.82454727271
-1.27869838399,-3.5576149343,0.836922209746,-6.77098041796
-0.100557704627,-6.5901682098,-1.55351695547,-8.43741356322
-2.09241702526,-6.8527214853,-1.76395612069,-9.02384670848
-5.2842763459,-5.8252747608,-0.164395285905,-5.73027985374
-8.41613566654,-6.1278280363,-0.0248344511201,-6.686712999
-6.43799498717,-5.3403813118,-0.325273616338,-7.36314614425
-3.88985430781,-3.6529345873,0.094287218446,-3.34957928951
-5.54171362844,-2.3954878628,0.303848053227,-2.22601243477
-4.85357294909,-2.5480411383,-0.446591111988,-5.30244558002
1.91456773028,-3.12059441379,-1.98703027721,-4.59887872528
3.54270840964,-3.76314768929,-2.61746944242,-4.33531187054
2.670849089,-2.61570096479,-2.67790860764,-1.5117450158
-0.381010231635,-3.52825424029,-4.04834777286,-3.28817816105
-3.33286955227,-4.93080751579,-4.68878693807,-7.48461130631
0.225271127088,-4.39336079129,-3.35922610329,-6.20104445157
0.103411806453,-2.90591406679,-1.98966526851,-4.10747759682
3.72155248582,-1.40846734229,-1.69010443372,-1.01391074208
7.71969316518,1.19897938221,-1.52054359894,1.36965611266
9.52783384454,2.56642610671,-1.84098276416,6.9632229674
5.83597452391,1.90387283122,-1.50142192937,7.62678982215
0.714115203271,-1.82868044428,-1.38186109459,2.56035667689
0.202255882628,-2.89123371978,-2.37230025981,-1.89607646837
0.870396561993,-2.77378699528,-1.29273942503,-1.75250961362
5.26853724136,-0.506340270778,-1.17317859024,0.851057241118
9.08667792072,3.36110645372,-1.13361775546,5.01462409586
10.9348186001,4.68855317822,-0.684056920676,10.3981909506
7.34295927945,3.57599990272,-0.804496085893,6.87175780535
3.96109995881,-1.04655337278,-1.64493525111,3.12532466009
2.07924063817,-2.59910664827,-1.98537441633,0.768891514832
1.06738131753,1.00834007622,-1.04581358155,-0.0875416304261
2.8755219969,-0.394213199274,-1.67625274676,-0.193974775684
2.62366267626,-0.866766474774,-1.53669191198,0.64959207906
2.94180335562,-1.70931975027,-2.08713107719,0.183158933803
1.72994403499,-0.0918730257727,-1.20757024241,1.11672578855
-1.71191528565,1.50557369873,0.391990592372,2.35029264329
-5.69377460629,-0.856979576769,-0.418448572844,1.00385949803
-9.70563392693,-1.11953285227,0.731112261939,-0.082573647227
-11.2674932476,-0.202086127767,1.65067309672,-0.629006792484
-10.2393525682,1.48536059673,0.840233931507,0.51456006226
-4.61121188884,3.41280732123,0.159794766289,5.018126917
0.206928790525,3.55025404573,-0.390644398929,5.03169377175
1.30506946989,4.16770077024,0.758916435854,3.18526062649
-0.796789850752,5.44514749474,2.97847727064,4.69882748123
0.131350828611,5.16259421924,2.29803810542,5.71239433597
-0.110508492027,4.18004094374,2.0375989402,5.60596119071
-2.48236781266,3.04748766824,2.26715977499,6.69952804546
-2.7142271333,4.08493439274,1.25672060977,9.1430949002
-1.50608645393,6.41238111724,1.28628144455,9.97666175494
0.342054225424,5.45982784174,0.555842279337,4.92022860969
-1.44980509521,3.47727456624,0.015403114121,2.62379546443
-1.76166441585,3.10472129075,1.0949639489,4.73736231917
0.226476263513,3.49216801525,0.234524783686,4.34092917392
-0.225383057124,6.17961473975,0.35408561847,6.90449602866
-1.23724237776,5.06706146425,1.14364645325,5.3480628834
-1.2391016984,1.45450818875,0.333207288037,1.58162973814
-2.29096101904,0.0219549132526,-0.0872318771835,-0.444803407112
-7.23282033967,2.17940163775,1.4923289576,2.31876344763
-10.4346796603,2.74684836225,1.52188979238,2.33233030237
-4.55653898095,3.44429508675,1.31145062717,2.60589715711
0.621601698418,3.87174181125,3.46101146195,4.37946401186
1.86974237778,4.29918853576,4.26057229673,3.7030308666
0.16788305714,7.52663526026,4.58013313152,6.66659772134
2.2260237365,8.00408198476,4.2996939663,6.90016457609
0.474164415868,4.46152870926,2.80925480108,4.42373143083
0.402305095227,2.18897543376,0.338815635867,3.00729828557
-0.249554225407,1.27642215826,1.62837647065,-1.94913485969
-1.77141354604,1.32386888276,1.99793730543,-0.615568004943
-3.29327286668,-0.608684392741,0.457498140218,-1.6820011502
-2.95513218732,1.33876233176,1.497058975,-2.11843429546
-0.276991507955,1.83620905627,0.796619809782,-1.81486744071
-2.98885082859,-0.436344219233,0.0661806445642,-3.07130058597
-1.51071014923,-0.368897494736,1.10574147935,-3.01773373123
0.897430530131,-0.331450770234,0.555302314133,0.635833123513
0.605571209497,-0.53400404573,0.0548631489146,-1.63060002174
-1.94628811114,1.73344267877,1.3844239837,-2.077033167
0.28185256822,1.67088940327,1.72398481848,-1.32346631226
0.459993247583,1.54833612777,1.24354565326,-1.01989945752
-2.11186607305,3.40578285227,1.59310648805,1.31366739723
0.766274606307,4.46322957677,0.932667322828,4.09723425197
1.47441528567,3.82067630127,1.01222815761,4.26080110671
-0.807444034963,2.32812302577,1.6917889924,0.274367961456
0.290696644395,1.06556975027,1.14134982718,-0.722065183802
1.55883732376,0.0230164747736,1.82091066197,1.30150167094
-0.273021996876,1.77046319928,3.17047149675,0.705068525684
-0.394881317516,1.52790992378,3.40003233153,0.848635380426
-0.0567406381524,1.15535664828,2.82959316631,0.93220223517
2.35140004121,0.242803372777,2.14915400109,0.355769089912
3.66954072058,0.270250097285,1.48871483588,-0.820664055345
5.83768139993,4.09769682178,1.76827567066,1.8129027994
2.3158220793,4.39514354628,3.09783650544,3.51646965414
2.51396275867,3.46259027078,3.28739734023,4.96003650888
3.52210343802,3.87003699528,2.13695817501,7.63360336363
4.63024411739,1.66748371979,-1.99348099021,1.96717021837
6.37838479675,1.18493044429,-2.65392015543,-0.219262926888
4.73652547611,0.362377168789,-1.18435932064,-2.10569607215
7.15466615547,-0.480176106714,-0.684798485858,1.5978707826
6.30280683484,0.597270617789,0.774762348927,3.26143763734
4.1309475142,0.474717342291,1.14432318371,0.385004492082
-0.100911806436,2.24216406679,0.823884018493,0.218571346824
0.117228872929,-0.390389208707,-0.736555146723,-4.86786179843
-0.37463044771,-3.08294248421,-1.68699431194,-6.04429494369
-0.736489768347,-3.5754957597,-2.09743347716,-5.58072808895
0.691650911016,-4.1980490352,-2.22787264238,-6.5771612342
1.71979159038,-5.2406023107,-3.06831180759,-7.33359437946
0.377932269741,-4.2931555862,-1.79875097281,-3.56002752472
-2.5139270509,-0.935708861703,-1.07919013803,3.19353933002
-0.325786371533,-2.5582621372,-2.24962930324,3.76710618477
1.64235430783,-5.5908154127,-2.60006846846,-2.74932696049
0.270494987191,-6.4833686882,-2.77050763368,-2.11576010575
0.958635666553,-6.8959219637,-3.7809467989,-0.672193251003
-1.81322365408,-6.0684752392,-3.13138596411,-4.30862639626
-0.495082974721,-3.31102851469,-2.04182512933,-1.05505954152
1.89305770464,-0.223581790193,-1.83226429454,2.55850731322
1.20119838401,0.0138649343062,-3.07270345976,0.262074167968
0.249339063368,-2.97868834119,-3.66314262498,-1.62435897729
-1.53252025727,-6.30124161669,-3.43358179019,-8.50079212255
-3.4443795779,-7.32379489219,-1.72402095541,-8.9172252678
-5.69623889854,-6.35634816769,-0.684460120629,-7.45365841306
-3.55809821918,-3.15890144319,0.015100714154,-5.29009155832
-4.42995753982,-2.07145471869,0.584661548939,-3.73652470358
-5.44181686045,-3.45400799419,0.934222383719,-5.89295784883
8.37417514535,-1.11912427325,3.36394258721,2.63186773256
4.65136210173,-2.28713142052,3.47792085355,-0.715421769137
3.1385490581,-2.29513856779,2.33189911989,-4.01271127083
2.18573601447,-3.42314571506,1.25587738624,-5.30000077252
1.38292297085,-2.34115286233,1.44985565258,-4.19729027422
3.63010992722,-1.38916000961,0.483833918926,-3.54457977591
4.39729688359,-0.597167156873,-1.39218781473,-1.65186927761
3.64448383996,0.374825695853,-0.58820954839,0.2308412207
0.881670796331,-1.98318145142,-0.0742312820439,-2.75644828099
-1.17114224729,-1.90118859869,-0.220253015705,-2.83373778269
-2.17395529092,-1.59919574596,-0.426274749359,-5.57102728438
-0.936768334552,-1.42720289323,-0.442296483019,-2.81831678607
-0.189581378178,0.214789959493,-1.33831821667,0.634393712231
-4.4323944218,0.646782812222,-0.254339950327,0.267104210538
-3.19520746543,0.0587756649511,0.839638316014,-0.0401852911564
-3.31802050906,-1.87923148232,0.723616582356,-0.897474792851
-7.40083355269,-1.83723862959,1.0775948487,-2.34476429454
-7.75364659632,-1.40524577687,0.471573115043,-2.33205379624
-7.31645963994,-3.31325292413,1.03555138139,-5.13934329793
-6.90927268357,-0.041260071408,1.24952964773,-4.01663279962
-4.3120857272,0.750732781322,1.38350791407,-3.38392230132
-6.51489877083,2.00272563405,2.09748618042,-2.23121180301
-11.6977118145,2.56471848678,2.34146444676,-2.37850130471
-11.2905248581,-0.643288660493,3.2954427131,-2.7457908064
-7.36333790171,-3.13129580777,0.699420979447,-6.85308030809
-7.47615094534,-3.11930295504,-0.306600754211,-9.48036980979
-6.72896398896,-6.54731010231,-1.34262248787,-8.28765931148
0.138222967409,-3.13531724958,-1.47864422153,-5.08494881318
3.32540992378,-0.803324396853,-0.494665955179,-1.16223831487
2.77259688015,1.86866845587,0.369312311163,2.04047218343
2.88978383653,3.71066130861,-0.0367094224966,4.46318268174
-0.343029207103,4.91265416133,0.92726884385,5.16589318005
-1.43584225073,4.54464701406,0.141247110194,4.34860367835
-4.01865529436,3.50663986679,0.425225376537,3.80131417666
-6.15146833798,4.36863271951,1.75920364288,5.44402467497
-3.04428138161,3.89062557225,0.533181909221,3.57673517327
1.03290557476,2.31261842497,-0.542839824433,4.04944567158
0.680092531129,5.0246112777,-0.52886155809,6.18215616989
-2.7327205125,2.28660413043,-1.42488329175,5.99486666819
-4.57553355613,-2.68140301684,-1.8309050254,-2.0024228335
-4.03834659975,0.700589835888,-0.606926759061,-1.4097123352
-1.25115964338,3.02258268862,-1.05294849272,1.57299816311
-0.693972687008,6.18457554134,0.961029773625,4.97570866142
0.303214269366,3.04656839407,-0.634991960032,4.62841915972
2.12040122574,1.3385612468,-1.64101369369,0.97112965803
-0.872411817891,2.69055409953,-0.307035427344,1.70384015633
-0.165224861517,2.76254695225,-0.693057161003,3.53655065464
-0.898037905143,0.584539804986,-1.11907889466,0.869261152948
-3.35085094877,0.736532657713,-0.515100628312,3.33197165125
-3.2336639924,-3.16147448956,-2.69112236197,-1.01531785044
1.38352296397,-4.28948163683,-3.11714409563,-0.492607352133
5.10070992034,-3.0074887841,-3.61316582929,-0.969896853827
2.77789687672,0.444504068626,-3.58918756294,4.31281364448
1.04508383309,2.15649692135,-2.2252092966,2.53552414278
0.382270789461,2.03848977408,-1.11123103026,-0.901765358909
4.24945774583,2.05048262681,-0.447252763912,0.430945139396
2.5666447022,3.20247547954,-0.223274497566,2.3836556377
1.96383165858,2.31446833227,0.010703768774,2.05636613601
2.33101861495,-4.71353881501,-1.43531796488,-3.97092336568
3.20820557132,-5.82154596227,-1.44133969854,-2.79821286738
4.98539252769,-3.40955310954,-2.0673614322,-1.29550236907
6.31257948407,-2.99756025682,-3.44338316585,-1.03279187077
3.69976644044,-1.66556740409,-3.48940489951,0.109918627539
3.79695339681,-1.36357455136,-1.88542663317,1.93262912585
1.07414035319,-3.45158169863,-1.50144836682,1.62533962415
-1.10867269044,-3.17958884591,-0.147470100481,-2.79194987754
-0.851485734071,-0.207595993179,0.926508165863,1.82076062077
2.5257012223,2.25439685955,0.770486432204,5.94347111907
6.87288817867,-0.0136102877186,1.30446469855,3.40618161738
3.95007513505,0.898382565007,1.8984429649,5.26889211568
1.67726209142,3.86037541773,2.05242123124,7.78160261399
1.79444904779,2.08236827046,1.22639949758,6.4343131123
1.36163600416,2.92436112319,-0.279622236074,3.8470236106
2.50882296054,3.04635397592,-1.79564396973,1.86973410891
4.32600991691,-1.01165317135,-4.15166570339,-1.13755539279
4.86319687328,-0.0796603186245,-2.51768743705,-1.19484489448
8.38038382966,1.54233253411,-3.2437091707,2.74786560383
9.99757078603,1.48432538683,-2.63973090436,3.91057610213
10.2347577424,4.17631823956,0.534247361982,8.79328660044
11.4019446988,3.89831109229,1.50822562833,11.7159970987
10.4691316551,6.53030394502,4.21220389467,13.8687075971
10.4063186115,6.89229679775,3.91618216101,10.1614180954
11.3535055679,5.32428965047,3.40016042736,9.21412859366
6.47069252426,4.8662825032,5.0741386937,8.30683909197
5.15787948063,2.27827535593,3.08811696004,4.89954959028
1.69506643701,3.50026820866,2.32209522639,5.44226008858
3.47225339338,0.852261061387,1.26607349273,4.71497058689
7.72944034975,0.914253914118,-0.119948240928,4.80768108519
7.95662730612,0.726246766848,1.91403002541,3.2803915835
3.96381426249,0.958239619573,3.86800829176,1.56310208181
3.34100121887,2.0202324723,3.6719865581,3.34581258011
3.90818817524,3.68222532503,2.32596482445,5.42852307842
3.87537513161,-1.46578182224,-0.560056909209,-1.73876642328
4.19256208798,-3.39378896951,-1.88607864287,-3.11605592497
5.66974904435,-2.20179611678,-3.38210037653,-0.333345426663
6.41693600073,-5.13980326406,-4.70812211018,-1.13063492836
3.0041229571,-4.02781041133,-4.08414384384,-2.61792443005
4.02130991347,-2.5858175586,-2.54016557749,-5.31521393174
7.46849686985,-2.49382470587,-0.226187311149,-1.08250343344
-1.73431617378,-5.22183185314,-0.202209044808,-6.22979293513
-8.42712921741,-5.29983900041,-4.13823077847,-8.96708243683
-8.79994226104,-5.64784614769,-2.62425251212,-8.78437193852
-10.2227553047,-5.30585329496,-0.710274245779,-10.8316614402
-6.39556834829,-3.36386044223,-1.93629597943,-7.28895094191
-7.23838139192,-2.79186758951,-0.842317713094,-4.6862404436
-9.35119443555,-1.05987473677,0.631660553252,-8.07352994529
-5.57400747918,-3.50788188404,-1.0943611804,-12.070819447
-5.8268205228,-4.07588903132,-1.32038291406,-9.82810894868
-5.64963356643,-5.16389617859,-1.14640464772,-7.78539845038
-3.74244661006,-5.10190332586,-1.73242638138,-6.81268795207
-3.57525965369,-3.05991047313,-0.528448115034,-3.19997745376
-3.09807269731,-2.50791762041,0.11553015131,-1.91726695546
-3.16088574094,-0.445924767679,1.35950841765,-1.46455645715
-6.08369878457,0.466068085054,2.633486684,-2.64184595885
-5.0465118282,-0.351939062217,0.907464950342,-4.59913546054
-2.46932487182,3.95005379051,1.60144321668,-1.83642496223
-2.43213791545,-0.217953356765,0.165421483027,0.696285536074
-3.86495095908,0.624039495968,-0.440600250629,-0.23100396562
-4.40776400271,-0.213967651303,-0.666621984288,0.221706532686
-4.45057704633,-1.85197479858,-0.672643717942,-2.20558296901
-4.64339008996,1.58001805415,1.8513345484,0.267127529298
-2.46620313359,2.17201090688,2.81531281474,2.7998380276
-3.48901617722,3.03400375961,2.89929108109,2.27254852591
-3.90182922085,1.16599661234,2.69326934743,-0.224740975782
-2.24464226448,1.41798946506,1.86724761377,-1.93203047748
-0.807455308102,1.9199823178,1.97122588012,0.110680020829
-0.600268351729,1.85197517052,1.07520414646,3.51339051913
-2.24308139536,4.56396802325,1.3391824128,3.47610101744
5.09058139536,-2.73282703487,-1.21809229652,-2.86624636628
5.51997676709,-6.82370525086,-2.62247765406,-1.57449322469
6.37937213881,-7.20458346685,-2.15686301159,-1.72274008309
10.0087675105,-7.01546168283,-1.94124836913,-4.4109869415
9.56816288227,-6.03633989882,-1.90563372666,-4.9692337999
7.157558254,-3.21721811481,-0.590019084197,-1.80748065831
2.53695362572,-5.03809633079,-0.584404441735,-3.01572751671
0.686348997449,-4.61897454678,-0.0987897992709,-4.12397437512
3.42574436918,-2.71985276276,-0.153175156804,-0.442221233521
6.5151397409,-5.00073097875,-0.79756051434,-5.81046809193
4.66453511263,-2.66160919474,0.418054128128,-6.39871495033
0.133930484357,-1.17248741072,0.243668770589,-1.19696180874
-2.02667414392,-2.96336562671,0.619283413052,-5.13520866714
-0.277278772191,-5.04424384269,0.964898055521,-8.07345552555
-2.72788340046,-1.60512205868,2.17051269799,-2.73170238395
0.321511971262,-1.74600027467,0.966127340449,-2.84994924236
5.29090734299,-0.586878490652,-0.118258017086,-4.22819610076
6.37030271471,3.61224329336,0.577356625377,0.503557040833
8.20969808644,4.43136507737,-0.747028732156,0.855310182427
6.31909345817,3.38048686139,-0.711414089688,-1.38293667598
5.04848882989,4.9196086454,0.474200552773,2.20881646562
6.06788420162,3.97873042942,0.249815195239,2.18056960721
5.73727957335,3.07785221343,-0.514570162297,3.09232274881
5.87667494508,4.65697399744,-0.168955519832,4.8740758904
4.5260703168,7.89609578146,2.13665912263,5.265829032
0.995465688531,11.0152175655,4.7722737651,10.7175821736
0.684861060257,10.0143393495,6.26788840756,14.6693353152
4.58425643198,8.7534611335,5.65350305003,13.2510884568
5.48365180371,7.18258291751,3.34911769249,9.78284159838
9.07304717544,6.80170470152,1.64473233496,8.32459473997
8.36244254716,5.05082648554,0.210346977423,6.47634788157
1.98183791889,-1.46005173045,-0.754038380113,0.888101023163
-5.03876670939,-5.13092994643,-1.48842373765,-2.02014583524
-7.48937133766,-8.21180816242,-3.17280909518,-5.04839269365
-8.81997596593,-7.7026863784,-2.75719445272,-7.37663955205
-9.01058059421,-5.67356459439,-3.36157981025,-5.73488641046
-6.19118522248,-5.38444281038,-3.72596516779,-3.03313326886
-7.79178985075,-2.55532102636,-3.81035052532,1.71861987273
-7.14239447902,-1.55619924235,-4.82473588286,-2.23962698567
-5.8329991073,0.852922541664,-3.59912124039,0.992126155923
-9.92360373557,0.242044325678,-2.46350659793,1.83387929752
-12.0342083638,-2.52883389031,-1.83789195546,-0.114367560889
-10.4148129921,-1.5897121063,-0.392277313,-1.46261441929
-12.4954176204,0.839409677719,0.323337329464,0.389138722303
-10.8560222487,3.33853146173,1.00895197193,2.5708918639
-8.11662687694,3.41765324575,1.4345666144,4.59264500549
-6.72723150521,3.37677502976,1.96018125686,4.56439814709
-4.77783613349,7.23589681377,3.02579589932,5.81615128868
-1.32844076176,7.76501859779,3.07141054179,7.90790443028
0.380954609969,6.7841403818,3.58702518425,5.72965757187
1.04034998169,7.67326216581,3.66263982672,5.61141071347
2.80974535342,4.31238394983,2.40825446918,1.54316385506
4.04914072515,3.81150573384,1.69386911165,2.33491699666
0.388536096878,4.68062751786,2.24948375411,2.28667013825
-1.2820685314,4.04974930187,1.95509839658,0.268423279846
1.36732684033,3.88887108588,2.73071303904,-0.139823578558
1.07672221206,1.5679928699,1.67632768151,-0.768070436963
-1.79388241622,0.687114653909,-0.788057676029,-2.07631729537
-3.82448704449,-1.68376356208,-0.722443033563,-6.12456415377
-6.58509167276,-4.88464177806,-1.6168283911,-8.28281101218
-8.63569630104,-6.38551999405,-1.33121374864,-4.80105787058
-10.3063009293,-7.73639821004,-0.845599106167,-6.79930472899
-12.3569055576,-5.52727642602,-0.689984463705,-11.1375515874
-8.05751018586,-3.51815464201,-1.12436982124,-8.8457984458
-1.52811481413,-3.27903285799,-3.15875517877,-7.7140453042
-0.348719442405,-2.51991107398,-2.64314053631,-3.80229216261
-1.63932407067,-5.05078928997,-3.47752589384,-3.23053902101
-5.43992869895,-2.98166750595,-2.86191125138,-1.75878587942
-4.65053332722,-1.86254572194,-0.426296608912,-3.06703273782
-1.2211379555,2.04657606208,1.57931803355,-2.80527959623
-1.46174258377,7.89569784609,3.88493267601,2.21647354537
2.23765278796,9.0948196301,4.53054731848,5.56822668696
6.60704815968,7.50394141412,3.15616196095,6.00997982856
6.94644353141,5.78306319813,1.54177660341,8.99173297015
5.94583890314,3.16218498214,-0.152608754124,6.75348611175
1.16523427486,-0.148693233841,0.15300588834,1.00523925334
-2.37537035341,-2.58957144983,-0.631379469196,-2.93300760506
-2.08597498168,-1.10044966581,-0.365764826729,-1.80125446347
-4.30657960996,0.278672118202,0.00984981573492,-0.579501321874
-2.66718423823,-0.122206097785,0.7654644582,0.82225181972
-3.03778886651,-0.623084313771,1.23107910066,2.17400496132
-7.32839349478,-0.96396252976,0.126693743132,0.365758102911
-7.78899812305,-2.03484074574,0.282308385595,-0.00248875549369
-8.78960275132,-1.30571896173,0.947923028059,1.1792643861
-7.9102073796,-2.80659717772,-0.636462329476,-1.6889824723
-5.38081200787,-2.83747539371,-0.600847687012,0.0427706692899
-2.57141663614,-0.558353609689,-1.29523304454,5.49452381088
-2.39202126442,-2.54923182568,-1.63961840208,-0.0337230475197
-2.09262589269,-1.26011004166,-1.10400375962,0.768030094076
1.91676947903,-0.390988257652,-1.48838911715,3.14978323567
2.30616485076,1.07813352636,-1.09277447469,5.91153637727
0.52556022249,3.28725531038,-0.517159832219,8.76328951886
2.34495559421,3.52637709439,-0.721545189757,7.06504266046
2.63435096594,3.74549887841,-0.545930547294,4.46679580205
2.89374633767,2.62462066242,-0.370315904827,2.50854894365
2.74314170939,2.55374244643,-1.62470126236,2.84030208524
0.932537081124,1.61286423045,-1.0190866199,-1.07794477316
-1.64806754715,1.42198601446,0.0865280225662,-0.456191631569
-4.47867217542,2.14110779847,1.00214266503,1.36556151003
-2.6192768037,3.70022958249,1.2677573075,4.33731465162
0.880118568031,0.739351366501,0.923371949964,3.49906779321
-0.660486060246,-2.34152684948,-0.281013407573,-1.35917906519
-0.341090688518,-5.57240506547,-1.80539876511,-7.03742592359
1.31830468321,-6.87328328146,-1.73978412264,-7.825672782
0.907700054937,-4.79416149744,0.335830519824,-7.0739196404
0.397095426662,-6.16503971343,-0.808554837717,-4.62216649881
1.25649079839,-5.27591792941,-1.08294019525,-4.45041335722
-0.0341138298863,-3.0667961454,0.412674447216,-0.98866021562
3.12528154184,-4.04767436139,-0.60171091032,0.203092925976
4.53467691357,1.04144742263,0.263903732146,2.01484606757
4.07407228529,2.17056920664,0.689518374609,2.45659920917
3.45346765703,1.65969099065,0.575133017075,2.42835235076
1.34286302875,0.758812774668,0.320747659542,-0.129894507645
-0.397741599525,1.37793455868,-0.703637697996,-1.13814136605
0.751653772204,1.7070563427,-1.95802305553,0.373611775545
4.00104914393,1.52617812671,-0.352408413066,-0.10463508286
4.50044451566,1.05529991072,0.753206229398,-0.602881941264
2.80983988738,-2.61557830526,-0.411179128136,-3.43112879967
0.419235259109,-6.30645652125,-1.86556448567,-8.54937565808
-0.171369369164,-7.18733473723,-2.87994984321,-8.84762251648
0.748026002562,-7.18821295322,-2.45433520074,-7.26586937489
0.847421374288,-6.87909116921,-2.36872055828,-7.29411623329
1.96681674601,-1.85996938519,-0.313105915811,-3.50236309169
6.33621211774,0.199152398822,0.35250872665,0.179390049901
9.69560748947,2.93827418283,1.39812336912,3.70114319149
6.90500286119,5.16739596685,3.60373801158,4.61289633309
7.58439823292,6.46651775086,4.42935265405,6.55464947468
12.4437936046,5.31563953487,3.50496729651,4.84640261628
0.80444404071,3.26557049419,2.54219113371,6.96648255814
2.77742892786,3.10441977775,0.501534088304,5.38901334462
-0.159586184982,3.8032690613,0.120877042889,6.25154413111
-3.16660129783,1.62211834486,-0.549780002519,9.22407491759
-4.54361641068,-2.83903237158,-1.33043704793,7.17660570408
-8.33063152352,-2.83018308803,-0.351094093345,3.50913649057
-9.97764663637,-1.52133380447,-0.61175113876,2.36166727705
-8.29466174921,-5.04248452092,-2.22240818417,-0.595801936461
-9.49167686206,-7.75363523736,-3.99306522958,-3.30327114998
-6.0386919749,-9.6647859538,-5.403722275,-5.12074036349
-4.64570708775,-11.5559366702,-6.74437932041,-10.628209577
-5.3227222006,-12.1670873867,-7.39503636583,-11.5556787905
-3.81973731344,-11.3582381031,-6.20569341124,-9.55314800403
-5.86675242629,-7.60938881958,-4.39635045665,-4.50061721755
-7.89376753913,-3.69053953602,-2.60700750207,0.991913568942
-6.05078265198,-1.82169025247,-2.09766454747,-0.385555644574
-2.10779776482,1.93715903109,-1.73832159289,1.26697514191
2.41518712233,2.44600831464,-2.0989786383,4.2295059284
6.62817200948,3.8648575982,0.000364316285413,2.70203671489
10.7511568966,7.71370688176,3.37970727087,5.53456750137
14.1341417838,10.6525561653,5.13905022546,11.6570982879
8.24712667095,7.67140544887,2.58839318005,11.8696290743
7.3801115581,0.480254732425,-3.48226386536,6.20215986083
9.92309644526,-0.400895984018,-0.51292091078,6.15469064731
5.10608133241,-1.30204670046,1.51642204381,1.2572214338
5.28906621957,1.14680258309,0.445764998396,-0.320247779713
7.98205110672,5.15565186665,0.285107952983,3.27228300677
5.55503599387,3.46450115021,1.53445090757,3.04481379326
-1.81197911897,1.84335043376,1.04379386216,-2.06265542026
0.701005768184,-2.38780028268,-1.05686318325,-5.67012463377
-2.52600934466,-4.45895099913,-1.09752022867,-7.90759384728
-3.61302445751,-4.94010171557,-1.56817727408,-8.7650630608
-3.61003957035,-8.48125243202,-3.82883431949,-11.4725322743
-4.2970546832,-6.55240314846,-3.15949136491,-8.06000148783
-6.27406979605,-6.0735538649,-3.25014841032,-1.04747070134
-9.70108490889,-3.22470458135,-2.11080545573,-0.164939914854
-9.89810002174,-3.59585529779,-1.48146250115,-8.06240912837
-5.30511513458,-4.27700601424,-0.632119546557,-10.5898783419
-6.30213024743,-0.778156730677,1.50722340803,-3.9573475554
-4.92914536027,0.130692552877,2.78656636261,-2.02481676891
-4.02616047312,-3.12045816356,2.4659093172,-6.23228598242
-3.25317558597,-5.19160888001,0.345252271793,-6.05975519594
-4.65019069881,-5.74275959645,-0.485404773623,-6.95722440945
-4.75720581166,-6.3339103129,0.473938180967,-8.08469362296
-2.2442209245,-6.27506102934,0.233281135552,-8.58216283648
-1.09123603735,-1.90621174579,0.592624090135,-3.73963204999
-4.79825115019,2.10263753777,1.34196704473,1.26289873649
-3.95526626304,0.461486821325,1.86130999931,-3.80457047702
-5.09228137588,-0.619663895119,2.2406529539,-8.68203969054
-5.56929648873,0.859185388439,3.44999590849,-6.06950890405
-4.19631160158,-2.35196532801,2.56933886308,-7.08697811756
-2.62332671442,-2.69311604445,1.83868181766,-9.59444733108
-0.65034182727,4.71573323911,3.35802477225,0.968083455409
1.51264305989,5.39458252266,6.12736772684,9.3906142419
-5.45437205296,0.0834318062189,6.45671068142,-1.83685497162
-10.3213871658,0.272281089776,1.02605363601,-5.48432418513
-6.26840227865,2.41113037333,1.4953965906,-3.10179339865
-3.39541739149,6.81997965689,4.20473954518,0.960737387839
-1.04243250434,5.84882894044,2.88408249977,1.53326817433
3.06055238281,2.057678224,1.53342545436,-4.01420103919
10.47353727,-0.653472492446,-0.137231591052,-2.8616702527
8.24652215712,1.32537679111,-0.33788863647,-2.84913946622
5.81950704427,0.904226074668,0.191454318119,-3.00660867973
6.07249193143,-1.17692464178,-0.739202727294,-3.86407789324
0.785476818586,-1.32807535822,0.260140227292,-6.84154710676
1.86846170574,-0.669226074664,-0.41051681812,-4.09901632027
6.39144659289,3.45962320889,0.888826136466,-0.826485533786
10.29443148,7.37847249245,3.09816909106,5.5860452527
15.6674163672,7.367321776,3.00751204564,5.95857603919
13.4104012544,11.2861710596,3.09685500023,9.32110682567
12.4433861415,8.97502034311,3.16619795482,8.60363761216
12.8763710287,4.93386962667,0.905540909403,4.95616839864
10.9393559158,4.34271891023,-0.145116136009,4.09869918513
10.232340803,3.77156819378,1.03422681858,4.47122997162
12.3453256901,6.24041747734,2.60356977317,7.3937607581
14.9283105773,9.1592667609,3.74291272775,11.0762915446
11.4212954644,9.79811604445,3.90225568234,5.33882233107
10.1842803516,8.75696532801,3.76159863693,3.95135311756
9.78726523875,8.56581461156,2.24094159151,7.43388390405
11.1902501259,7.39466389512,1.5002845461,9.00641469053
12.3332350131,5.68351317868,0.0296275006876,8.57894547702
11.6962199002,4.82236246223,-0.981029544724,5.15147626351
11.4792047874,5.63121174579,-0.111686590139,7.78400704999
10.5521896745,7.01006102934,0.207656364448,8.98653783648
8.41517456167,6.0189103129,0.356999319036,5.48906862296
3.50815944883,6.73775959646,0.246342273622,3.54159940945
4.59114433598,5.87660888001,-0.114314771788,5.18413019594
4.44412922313,7.87545816357,1.0050281828,9.37666098242
3.37711411029,10.3543074471,0.894371137387,13.3991917689
4.15009899744,10.6331567307,1.98371409197,12.0217225554
1.2730838846,8.63200601424,2.86305704656,9.04425334188
-1.50393122825,7.88085529779,1.98240000115,8.12678412837
-3.06094634109,7.48970458135,2.68174295573,7.39931491485
-2.44796145394,3.42855386491,0.781085910323,2.63184570134
-2.35497656678,1.13740314846,-0.409571135093,2.40437648782
-1.40199167964,1.63625243202,0.889771819497,2.64690727431
-2.55900679248,4.46510171557,2.98911477408,6.8394380608
-3.90602190532,3.65395099913,3.70845772867,4.59196884728
-4.35303701817,0.952800282685,3.23780068326,2.21449963377
-4.94005213102,-2.44835043376,-0.072856362156,-0.802969579745
-5.39706724386,-3.9895011502,-0.59351340757,-3.16043879326
-5.57408235671,-2.68065186665,-0.104170452982,-1.86790800677
-5.67109746955,-6.00180258309,-2.2948274984,-4.91537722029
-8.7681125824,-3.86295329954,-0.835484543808,-3.9128464338
-8.02512769524,-3.51410401598,-1.12614158922,-3.79031564731
-7.32214280809,-4.33525473242,-0.636798634634,-4.44778486083
-5.56915792093,-6.11640544887,-1.35745568005,-3.91525407434
0.613826966222,-7.26755616531,-1.59811272546,-4.41272328786
-3.82318814663,-6.60870688175,-0.108769770872,-1.47019250137
-5.83020325947,-7.8698575982,-1.44942681629,-2.54766171489
-6.26721837232,-9.27100831464,-2.8500838617,-5.7951309284
-8.13423348517,-7.02215903109,-2.34074090711,-7.19260014191
-9.69124859801,-5.44330974753,-0.641397952524,-3.73006935543
-8.27826371085,-2.10446046398,-0.102054997937,2.34246143106
-0.595278823701,-5.46561118042,-2.05271204335,-2.02500778245
-1.68229393655,-6.08676189686,-2.94336908876,-5.76247699597
-1.78930904939,-4.79791261331,-2.94402613418,-4.69994620948
-1.59632416224,-4.04906332975,-2.59468317959,-4.457415423
-3.80333927508,-3.7902140462,-2.185340225,-2.43488463651
-1.38035438793,-4.25136476264,-1.40599727041,-0.872353850025
-0.857369500776,-4.31251547908,-1.31665431583,-0.149823063539
-1.33438461362,-3.20366619552,-2.03731136124,-3.10729227705
-1.37139972647,-3.77481691197,-1.80796840665,-3.26476149057
-2.23841483931,-4.92596762841,-2.61862545207,-3.18223070408
-0.505429952158,-5.85711834486,-3.75928249748,-4.59969991759
-4.092445065,-4.6182690613,-2.85993954289,-2.83716913111
-5.30946017785,-2.36941977774,-3.3805965883,-2.11463834462
-5.2764752907,-4.48057049419,-3.33125363372,-7.23210755814
0.81288517443,4.27692950582,-4.29829941862,8.66309229651
2.27617758309,2.57009670849,-5.14807644549,8.91971682727
0.879469991767,1.25326391115,-4.57785347236,6.37634135803
-4.02723759956,0.146431113815,-5.88763049924,5.5829658888
-4.03394519089,-0.750401683519,-7.0974075261,4.56959041956
-2.32065278222,2.26276551914,-5.63718455298,8.79621495033
-0.417360373551,2.65593272181,-5.44696157985,7.82283948109
2.90593203512,3.78909992447,-4.72673860672,5.08946401185
8.38922444379,2.09226712714,-6.62651563359,4.17608854262
10.1325168525,0.495434329801,-8.22629266047,4.08271307338
5.19580926113,1.51860153247,-6.52606968734,4.50933760414
3.4191016698,0.531768735131,-5.84584671421,5.25596213491
-0.49760592153,-2.85506406221,-5.59562374109,1.62258666567
-2.23431351286,-1.83189685954,-3.21540076796,3.50921119643
-1.95102110419,2.05127034312,-1.37517779483,4.1958357272
0.632271304483,4.19443754579,-0.814954821701,4.02246025796
2.27556371316,3.98760474845,-1.79473184857,1.52908478872
4.04885612182,4.47077195112,-0.824508875445,-0.944290680511
1.7621485305,10.1639391538,2.31571409768,5.57233385025
7.06544093916,6.56710635644,0.395937070811,5.59895838102
4.97873334783,2.64027355911,-1.16383995606,5.74558291178
2.5520257565,2.55344076177,-1.49361698293,5.75220744254
0.285318165177,-1.45339203556,-1.9133940098,-1.16116802669
1.32861057385,-0.810224832901,-1.39317103668,-5.48454349593
2.32190298252,-1.95705763024,-0.472948063551,-5.70791896516
-2.42480460881,-6.01389042757,-1.26272509042,-7.1412944344
-2.93151220014,-4.38072322491,-0.212502117294,-6.80466990364
-2.60821979147,-6.93755602224,0.377720855831,-7.03804537287
-4.6949273828,-7.79438881958,-0.752056171041,-8.64142084211
-7.43163497413,-6.93122161692,-0.861833197912,-10.3747963113
-9.85834256546,-9.90805441425,-0.631610224787,-12.5481717806
-9.73505015679,-12.0348872116,-1.81138725166,-14.3115472498
-10.9317577481,-10.9917200089,-0.951164278529,-17.2249227191
-10.2684653394,-7.64855280626,0.6590586946,-11.9682981883
-8.36517293078,-6.93538560359,1.04928166773,-8.69167365753
-7.28188052211,-5.17221840093,2.43950464085,-5.73504912677
-8.62858811344,-3.05905119827,2.84972761398,-3.908424596
-6.44529570477,-1.7458839956,2.60995058711,-3.95180006524
-1.3620032961,-1.43271679294,3.22017356024,-3.31517553448
-2.28871088742,-3.35954959027,3.16039653336,-4.48855100371
-1.96541847876,-3.61638238761,3.03061950649,-2.96192647295
-2.31212607009,-3.84321518494,1.87084247962,-1.62530194218
-2.43883366141,-0.430047982278,2.30106545275,-1.61867741142
0.924458747253,-3.87688077962,1.53128842588,-1.90205288066
-2.50224884407,-4.77371357695,0.771511399005,-4.28542834989
-4.9289564354,-4.54054637429,1.20173437213,-4.42880381913
-0.105664026734,-3.71737917162,0.63195734526,-1.13217928836
6.53762838194,-2.62421196896,0.922180318386,-2.4655547576
7.02092079061,-1.25104476629,1.13240329151,-0.558930226838
1.84421319927,2.37212243637,2.70262626465,1.14769430393
3.66750560795,1.51528963904,2.55284923777,0.67431883469
7.06079801662,3.4984568417,3.0530722109,7.23094336545
6.01409042529,6.33162404436,5.00329518403,9.51756789622
6.54738283396,7.06479124703,4.91351815715,3.44419242698
5.44067524263,4.84795844969,5.16374113028,-0.609183042256
4.0839676513,5.89112565236,6.76396410341,2.01744148851
1.76726005997,5.32429285502,5.87418707654,3.67406601927
4.38055246864,3.08746005769,5.36441004966,-0.399309449966
10.8438448773,5.98062726035,5.3946330228,6.3573150808
7.43713728598,5.28379446302,6.40485599592,8.75393961156
-4.39957030535,1.47696166568,2.85507896905,0.140564142326
-5.47627789668,2.55012886834,0.945301942178,-0.47281132691
0.837014511992,-0.786703928992,2.8755249153,-0.986186796146
3.93030692066,-1.19353672633,2.54574788843,-4.85956226538
4.63359932934,0.679630476334,6.14597086156,-4.96293773462
2.236891738,0.242797678999,7.20619383469,-4.72631320386
1.69018414668,1.13596488166,6.91641680781,-4.91968867309
2.63347655534,3.76913208433,7.27663978095,-0.463064142328
3.78676896402,6.08229928699,6.32686275407,6.74356038844
4.05006137268,5.51546648965,5.6670857272,3.2201849192
3.56335378136,2.13863369232,3.65730870033,-2.65319055004
1.49664619003,4.16180089498,5.62753167345,-1.56656601927
3.4799385987,5.21496809765,5.14775464658,1.82005851149
3.91323100737,4.71813530031,4.14797761971,1.44668304225
-0.923476583961,3.45130250298,5.01820059284,2.57330757302
-6.44018417529,-0.0355302943608,3.21842356597,-0.46006789622
-7.76689176662,-4.1723630917,1.58864653909,-5.90344336546
-6.50359935795,-1.71919588903,2.15886951222,-1.70681883469
-10.8503069493,0.213971313635,3.72909248535,-1.37019430393
-10.6170145406,1.0371385163,4.04931545848,1.21643022684
-5.17372213194,2.12030571896,4.02953843161,-0.336945242399
-1.05042972327,3.88347292163,4.32976140473,0.759679288363
1.0628626854,4.30664012429,4.43998437786,1.51630381913
4.58615509407,5.00980732695,3.62020735099,4.83292834989
6.58944750274,3.17297452962,1.75043032411,4.25955288065
5.12273991141,-1.18385826772,0.93065329724,2.56617741142
4.01603232008,-2.27069106505,0.690876270372,2.02280194218
2.14932472875,-1.68752386239,-0.218900756499,-0.0505735270544
0.622617137422,-1.51435665972,-0.788677783374,-2.92394899629
0.405909546094,-3.51118945706,-1.00845481025,-6.64732446553
-0.810798045233,-3.78802225439,-1.17823183712,-4.87069993476
1.17249436343,-3.65485505173,-1.66800886399,-3.434075404
-0.584213227896,-0.221687849065,-1.74778589086,-1.65745087324
-3.41092081922,-0.3185206464,-1.76756291774,-1.13082634247
0.332371589444,-5.50535344374,-2.76733994461,-8.72420181171
2.44566399811,-3.75218624107,-0.567116971477,-6.94757728095
1.73895640679,5.34098096159,2.67310600165,3.18904724982
5.86224881545,11.3041481643,4.78332897478,13.4756717806
0.335541224125,1.10731536692,3.3335519479,2.18229631134
-3.2311663672,-4.74951743042,-2.46622507897,-7.62107915789
-4.31787395853,0.333649772248,-3.55600210584,1.52554537287
-4.14458154986,-1.59318302509,-2.27577913271,-1.07783009636
0.0487108588095,0.229984177578,-3.45555615958,-1.0712055656
2.36200326748,6.28315138024,-1.84533318646,6.11541896516
3.19529567615,5.56631858291,-1.50511021333,3.84204349593
0.458588084821,3.96948578557,-1.0748872402,1.07866802669
-3.84811950651,4.28265298823,-0.28466426707,1.67529255745
-7.27482709784,0.545820190895,-2.06444129394,0.851917088217
-5.96153468917,-2.26101260644,-2.99421832082,-0.23145838102
-5.6882422805,-4.94784540377,-4.26399534769,-1.67483385025
-4.57494987183,-6.22467820111,-6.06377237456,0.211790680509
-3.43165746316,-4.87151099845,-3.38354940143,2.03841521127
1.57163494551,-3.05834379578,-3.51332642831,3.67503974204
4.14492735418,-0.965176593119,-5.53310345518,2.9016642728
1.47821976285,-0.252009390453,-3.47288048205,1.14828880356
-1.30848782848,-2.67884218779,-2.62265750892,-2.10508666567
-1.2051954198,-2.92567498513,-2.70243453579,-3.43846213491
0.348096988866,-1.70250778246,-3.39221156267,0.508162395854
3.02138939754,-1.8393405798,-3.47198858954,-1.72521307338
1.31468180621,-0.706173377133,-3.51176561641,-0.298588542619
1.45797421487,-4.40300617447,-6.79154264328,1.33803598814
-0.518733376452,-2.4198389718,-6.11131967016,3.76466051891
-0.905440967781,0.323328230861,-4.94109669703,3.68128504967
2.40785144089,-1.00350456647,-5.5908737239,-0.172090419564
-0.238856150441,-0.690337363812,-3.68065075077,-1.0854658888
0.334436258228,-1.30717016115,-2.56042777764,0.911158641964
2.4677286669,2.10599704152,-1.41020480452,4.99778317273
3.51102107557,4.89916424418,-0.50998183139,7.26440770349
8.13084387098,-1.02764774193,1.89840129031,5.18706322581
9.63043282456,1.23744645162,2.54027622344,7.3991225177
10.4100217781,1.06254064517,1.62215115656,6.7611818096
