12.5315007267,9.11195857559,-1.00072311047,14.5284774709
8.8037507153,8.19289845038,-0.0396770280186,14.5979268907
13.3460007039,10.3738383252,-0.298630945572,14.2173763104
10.0382506924,9.99477819997,-1.41758486312,10.3768257302
8.09050068097,10.5957180748,-1.65653878067,10.0862751499
7.89275066952,6.41665794956,-3.55549269823,9.35572456967
5.79500065808,7.14759782435,-2.59444661578,9.29517398942
7.71725064663,9.06853769915,-2.61340053333,10.3446234092
2.01950063519,1.97947757394,-3.75235445088,5.16407282892
-2.15824937626,2.85041744874,-1.91130836843,3.51352224867
0.0140006122965,1.82135732353,-2.67026228598,1.75297166842
1.17625060085,2.22229719832,-2.37921620354,3.52242108817
-2.68149941059,-0.466762926888,-3.33817012109,2.09187050792
1.52075057796,1.83417694791,-3.03712403864,3.97131992767
-0.126999433483,3.0651168227,-2.38607795619,8.82076934741
2.53525055507,3.0360566975,-1.80503187374,4.94021876716
1.30750054363,4.57699657229,-0.993985791296,0.309668186914
3.40975053218,12.5479364471,3.76706029115,6.34911760666
5.53200052074,13.1088763219,5.2381063736,14.1785670264
1.62425050929,3.49981619667,-0.390847543949,5.52801644616
3.56650049785,1.59075607147,-0.809801461501,2.22746586591
1.8087504864,3.42169594626,3.44124462095,1.35691528566
-1.38899952504,3.24263582105,2.2322907034,-0.473635294591
2.30325046351,2.63357569585,2.48333678584,-1.69418587484
0.315500452067,1.51451557064,0.814382868291,-0.824736455093
-1.58224955938,-0.254544554562,1.28542895074,-0.155287035343
0.990000429178,-2.49360467977,1.01647503319,-2.6458376156
-1.21774958227,1.43733519502,2.89752111564,1.22361180415
-6.22549959371,2.44827506982,2.89856719808,-1.8169387761
0.436750394842,1.49921494461,3.97961328053,-3.19748935635
0.439000383394,-3.0398451806,3.64065936298,-7.5380399366
-4.20874962805,2.0110946942,3.58170544543,-9.15859051685
-3.32649963949,-1.69796543101,1.32275152788,-11.8391410971
-5.02424965094,-0.0470255562141,0.883797610328,-7.58969167735
-2.03199966238,1.17391431858,0.994843692775,-4.2802422576
1.66025032617,0.104854193374,1.91588977522,-3.67079283785
-4.45749968528,0.525794068169,1.93693585767,-6.4213434181
-3.69524969672,-0.793266057037,2.29798194012,-5.83189399835
-1.32299970816,-4.69232618224,0.229028022568,-8.8524445786
-5.24074971961,-6.17138630745,-1.44992589498,-6.47299515885
-2.32849973105,-6.84044643266,-1.53887981254,-7.03354573911
2.0737502575,-6.21950655786,-2.22783373009,-5.40409631936
-4.42399975394,-6.34856668307,-1.37678764764,-3.42464689961
-3.51174976539,-3.33762680828,1.29425843481,-4.99519747986
-1.71949977683,-3.78668693348,0.045304517258,-3.33574806011
-5.57724978828,-5.91574705869,0.156350599707,-1.25629864036
-2.42499979972,-7.75480718389,-1.76260331785,-4.35684922061
1.84725018883,-7.5938673091,-1.5415572354,-4.52739980086
2.35950017739,-5.6329274343,-0.220511152949,-1.61795038111
1.07175016594,-6.57198755951,-0.8794650705,-5.66850096136
-4.8759998455,-5.55104768472,1.11158101195,-7.17905154161
0.176250143053,-1.66010780992,2.8326270944,0.800397878134
-5.61149986839,-1.03916793513,3.35367317684,2.11984729788
-4.86924987984,-4.54822806034,1.60471925929,-3.48070328237
3.91300010872,-4.45728818554,0.49576534174,-1.69125386262
1.59525009727,-4.37634831075,0.806811424189,-2.63180444287
0.657500085828,-3.50540843595,0.547857506639,-2.96235502312
-1.37024992561,-2.88446856116,2.37890358909,-3.16290560337
-5.65799993706,-4.18352868637,1.90994967154,-2.46345618362
-5.03574994851,-6.15258881157,0.530995753983,-1.34400676387
-4.96349995995,-8.07164893678,0.262041836431,-4.00455734412
-5.3612499714,-7.23070906198,0.91308791888,-5.20510792437
-2.81899998284,-9.57976918719,-2.07586599867,-6.38565850463
-3.50674999429,-10.0088293124,-2.58481991622,-8.34620908488
-3.39450000573,-4.6478894376,-0.213773833777,-4.32675966513
-6.74225001718,-4.26694956281,2.57727224867,-4.83731024538
-0.32000002862,-8.84600968802,-0.48168166888,-4.91786082563
0.702249959933,-3.71506981322,1.19936441357,-1.36841140588
2.49449994849,-1.79412993843,3.95041049602,3.42103801387
-7.42325006296,-2.44319006363,1.68145657847,-0.419512566379
-10.2810000744,-1.17225018884,-2.02749733909,-4.06006314663
-7.88875008585,-4.10131031404,-0.216451256638,-2.49061372688
-4.24650009729,-5.29037043925,1.88459482581,-5.57116430713
-5.33425010874,-2.91943056446,1.10564090826,-3.87171488738
-8.71200012018,-2.02849068966,0.956686990707,-2.37226546763
-6.69975013163,1.43244918513,0.507733073155,-1.16281604788
-9.26750014307,-2.01661094007,1.8987791556,-3.05336662814
-5.08525015452,-4.11567106528,1.06982523805,-4.10391720839
-5.84300016596,-0.36473119049,1.8108713205,-2.17446778864
-1.0307501774,1.82620868431,1.75191740295,0.484981631113
-4.44850018885,-6.0728514409,2.1329634854,-4.22556894914
-5.0762502003,-3.68191156611,1.53400956785,-6.12611952939
-5.11400021174,-0.0209716913123,-0.0749443497061,-2.79667010964
-6.61175022319,-0.730031816518,-1.86389826726,-5.22722068989
-2.98950023463,-1.44909194172,-2.95285218481,-6.78777127014
-2.53725024607,-4.13815206693,-3.31180610236,-6.80832185039
-0.00500025752262,-4.71721219214,-3.68076001991,-4.67887243064
-3.65275026896,-5.95627231734,-4.63971393747,-4.00942301089
4.79949971959,-2.24533244255,-2.73866785502,-3.84997359115
6.52174970815,-2.94439256776,-2.82762177257,-4.8705241714
6.9039996967,-4.84345269296,-4.54657569012,-4.94107475165
0.266249685257,-3.44251281816,-3.24552960767,-2.9416253319
2.61849967381,-4.11157294337,-2.93448352523,-4.01217591215
2.35074966236,-4.20063306858,-2.79343744278,-4.1027264924
1.53299965092,-0.809693193787,-3.59239136033,-2.60327707265
-2.49475036053,-1.11875331899,-3.86134527788,-1.7438276529
-3.36250037197,-3.9678134442,-2.27029919543,-0.894378233152
0.399749616583,-2.7568735694,-0.529253112982,1.1650711866
3.03199960514,-1.66593369461,-1.27820703053,3.46452060635
6.14424959369,-4.15499381981,-2.39716094809,-1.1060299739
-1.45350041775,-2.83405394502,0.193885134362,-1.37658055416
-4.15125042919,-3.30311407023,1.29493121681,1.15286886559
-1.15900044064,-4.11217419543,0.985977299259,-1.34768171466
1.25324954791,-3.18123432064,1.00702338171,-2.72823229491
2.62549953647,0.0597055541548,1.63806946416,2.91121712484
-0.482250474975,-1.50935457106,1.9291155466,1.79066654459
0.329999513582,-0.0584146962574,-0.189838370947,3.49011596434
1.58224950214,-2.67747482146,-0.568792288499,0.439565384089
-5.16550050931,1.23346505333,0.78225379395,-0.340985196162
-7.37325052076,-2.61559507188,0.0232998763986,-2.89153577641
-3.3110005322,-3.26465519708,0.0743459588466,-0.742086356664
0.291249456357,1.40628467771,0.095392041294,3.88736306309
2.44349944491,0.907224552506,-0.613561876258,2.48681248283
7.92574943347,4.1481644273,-0.162515793809,5.21626190258
6.33799942202,2.73910430209,0.238530288638,4.27571132233
3.92024941057,3.18004417689,1.06957637109,3.58516074208
1.38249939913,1.88098405168,1.14062245353,-0.615389838169
0.324749387688,3.11192392647,0.00166853598239,0.754059581581
-5.01300062376,7.26286380127,0.182714618431,4.53350900133
1.8292493648,8.29380367606,-1.42623929912,2.08295842108
7.56149935335,8.89474355086,-1.04519321667,3.31240784083
9.90374934191,11.0156834256,-0.814147134222,9.57185726058
8.34599933046,12.0666233004,-1.26310105177,12.5313066803
7.24824931902,14.1575631752,1.26794503067,13.7407561001
5.06049930757,16.07850305,2.54899111312,12.3102055198
6.45274929612,15.2694429248,2.55003719557,12.5196549396
10.9449992847,14.2003827996,1.61108327802,14.2591043593
13.3172492732,15.0013226744,3.07212936047,15.3785537791
8.3819622093,14.7812427326,8.2531431686,13.4692986919
3.29249356231,15.9181190773,8.1841480498,11.756125681
9.80302491531,9.76499542209,6.62515293101,7.64295267007
12.7635562683,17.6518717669,9.00615781221,19.8297796592
7.96408762132,14.5187481116,10.1171626934,15.0166066483
0.744618974317,6.62562445638,5.20816757462,4.13343363738
0.55515032732,7.45250080114,3.23917245582,2.71026062649
-5.05431831968,7.19937714591,3.07017733702,3.74708761559
-3.34378696667,4.71625349067,1.05118221823,4.1339146047
1.37674438633,2.05312983543,0.302187099429,3.8407415938
0.617275739336,3.8300061802,-0.0168080193671,5.2175685829
3.48780709234,7.36688252496,1.33419686184,9.42439557201
6.70833844534,3.69375886972,0.295201743038,10.4812225611
3.62886979834,1.43063521448,-0.563793375759,5.41804955022
6.89940115135,2.11751155925,-1.49278849456,3.78487653932
4.37993250435,3.59438790401,-2.88178361335,4.37170352843
1.03046385735,-0.988735751231,-2.60077873215,3.28853051753
-0.969004789644,-0.641859406467,-1.89977385095,0.855357506636
-2.70847343664,0.565016938297,-1.52876896974,0.302184495742
-2.56794208364,4.40189328306,0.0922359114611,3.94901148484
-3.60741073063,-0.291230372175,-0.406759207337,-1.62416152605
-0.726879377631,0.685645972586,-0.525754326134,-0.947334536944
-0.426348024626,2.42252231735,1.29525055507,4.03949245216
-0.245816671624,1.63939866211,0.816255436273,1.18631944126
-11.6552853186,2.30627500687,0.557260317477,0.0731464303681
-12.2147539656,-1.04684864836,0.0582651986788,-1.62002658053
-7.91422261261,-4.0899723036,-2.34072992012,-5.72319959142
-10.7236912596,-5.86309595884,-3.66972503891,-6.47637260232
-6.67315990661,-8.88621961407,-4.28872015771,-8.16954561321
-4.81262855361,-3.22934326931,-2.34771527651,-5.39271862411
-10.1420972006,-0.102466924549,-1.50671039531,-2.615891635
-11.2615658476,-0.935590579786,-1.1357055141,-2.0490646459
-14.0210344946,-2.50871423502,-0.7947006329,-3.03223765679
-6.44050314159,-0.871837890259,-0.283695751696,-1.27541066769
-4.62997178859,0.0150384545013,0.687309129507,-2.11858367859
-2.35944043559,0.101914799267,0.098314010711,-3.52175668948
-2.10890908258,0.858791144026,0.269318891913,-2.10492970038
0.51162227042,-0.484332511212,-0.749676226884,-1.16810271127
-3.70784637658,-4.98745616645,-0.66867134568,-3.30127572217
-0.167315023573,-3.33057982168,-1.32766646448,-3.69444873306
3.57321632943,-6.24370347692,-2.63666158327,-3.57762174396
-2.05625231757,-5.88682713216,-2.03565670207,-2.93079475485
0.634279035436,-7.00995078739,-3.30465182087,-6.07396776575
4.72481038844,-4.46307444264,-2.50364693966,-1.97714077664
7.03534174144,-1.83619809787,-0.012642058462,-1.48031378754
6.21587309445,0.0206782468922,-0.42163717726,0.676513201564
5.32640444745,-3.54244540834,-0.720632296056,-1.14665980933
-1.28306419955,-3.76556906358,-1.39962741485,-3.10983282023
3.38746715345,-5.15869271882,-1.72862253365,-5.41300583112
3.57799850646,-5.74181637406,-1.28761765245,-4.14617884202
5.45852985946,-5.4749400293,-3.24661277124,-5.01935185291
-0.430938787536,-8.27806368453,-4.36560789004,-6.57252486381
-1.75040743453,-6.45118733977,-4.02460300884,-6.1656978747
-1.38987608153,-10.654310995,-5.46359812764,-8.9788708856
2.93065527147,-13.5574346502,-5.98259324643,-11.9020438965
-4.29881337552,-9.59055830548,-5.55158836523,-12.8752169074
-5.67828202252,-8.94368196072,-5.31058348402,-12.3283899183
-10.2377506695,-9.88680561596,-4.15957860282,-8.77156292918
-7.20721931651,-8.02992927119,-3.80857372162,-4.56473594008
-6.62668796351,-8.08305292643,-3.19756884041,-5.13790895097
-1.65615661051,-1.91617658166,-1.48656395921,-1.49108196187
-5.4256252575,-2.8393002369,-1.73555907801,-1.43425497276
-7.4150939045,-9.94242389214,-2.24455419681,-5.92742798366
-3.9145625515,-4.85554754738,-1.4235493156,-4.71060099455
1.5859688015,-2.23867120262,-1.6525444344,-1.39377400545
4.58650015451,-0.681794857854,-1.1115395532,0.783052983657
13.3570315075,2.88508148691,-0.560534671993,1.87987997276
12.1275628605,-3.14804216833,-2.37952979079,0.926706961865
14.3680942135,-2.17116582356,-1.40852490959,1.69353395097
7.53862556652,-2.9342894788,-1.03752002839,-0.339639059925
6.24915691953,-1.39741313404,-0.996515147181,0.187187929179
10.6296882725,-2.20053678928,0.714489734022,1.71401491829
12.9402196255,1.14633955549,4.41549461522,2.14084190739
19.8307509785,4.25321590025,6.81649949643,4.96766889649
11.1712823315,8.16009224501,7.72750437763,7.6944958856
11.4818136845,10.8369685898,9.59850925883,9.7113228747
13.1223450375,9.71384493454,9.04951414004,8.30814986381
11.9928763905,9.9407212793,7.74051902124,8.69497685291
13.9834077436,8.65759762406,7.10152390244,8.39180384202
14.7039390966,7.58447396883,6.58252878365,8.08863083112
9.63447044956,7.49135031359,5.41353366485,7.37545782023
10.9150018026,5.87822665835,3.59453854605,5.10228480933
4.06553315556,-0.0948969968849,2.41554342726,0.219111798435
6.72606450857,-5.32802065212,0.646548308459,-5.92406121246
-4.89340413843,-12.9311443074,-4.55244681034,-13.6572342234
-7.77287278543,-13.7142679626,-5.92144192913,-17.3104072343
-9.57234143242,-17.2073916178,-8.28043704793,-19.9635802451
-13.1418100794,-22.9405152731,-10.5094321667,-25.006753256
-17.3812787264,-25.4436389283,-12.6384272855,-27.1999262669
-15.3007473734,-25.6867625835,-13.1174224043,-26.9630992778
-9.19021602041,-23.2998862388,-11.5864175231,-24.8762722887
-8.98968466741,-21.383009894,-9.55541264192,-21.4594452996
-15.9291533144,-15.2861335493,-6.28440776071,-19.1926183105
-8.6186219614,-9.65925720449,-4.90340287951,-12.1857913214
-7.3780906084,-0.00238085973251,-1.09239799831,-5.98896433231
-9.1575592554,4.59449548503,2.3386068829,0.947862656794
-6.87702790239,9.78137182979,4.4296117641,7.5046896459
-4.05649654939,6.12824817455,3.9506166453,4.331516635
-2.39596519639,6.75512451932,4.07162152651,5.78834362411
4.58456615662,13.9220008641,6.07262640771,13.5051706132
2.51509750962,14.8388772088,4.97363128891,14.6519976023
-2.28437113738,10.9157535536,2.68463617012,7.12882459142
-0.833839784373,9.44262989837,1.44564105132,9.52565158053
-8.46330843137,3.75950624313,-0.153354067479,3.09247856963
-11.4127770784,-2.2336174121,-1.57234918628,-2.31069444126
-9.70224572537,-2.21674106734,-1.56134430507,-6.14386745216
-11.7617143724,-5.25986472258,-0.310339423868,-8.12704046305
-17.4111830194,-5.06298837782,-0.619334542665,-8.28021347395
-14.6506516664,-2.89611203305,-0.978329661464,-6.21338648485
-13.8401203134,-0.219235688295,0.902675219739,-2.81655949574
-12.0895889603,3.28764065647,1.14368010094,0.970267493363
-3.94905760734,5.67451700123,0.864684982147,4.26709448247
-2.80852625434,5.271393346,1.70568986335,4.60392147157
-4.04799490134,3.00826969076,0.466694744553,5.71074846068
2.26253645166,10.9151460355,2.46769962576,10.2475754498
4.36306780467,11.9220223803,3.79870450696,11.7144024389
6.51359915767,12.518898725,4.97970938816,12.971229428
10.7041305107,12.3557750698,6.22071426936,15.5680564171
10.3246618637,11.5526514146,5.87171915057,17.7448834062
14.0951932167,13.4895277593,5.66272403177,18.9817103953
19.1257245697,19.3464041041,3.39372891297,19.0485373844
14.6562559227,15.8732804489,1.44473379418,12.9953643735
14.7367872757,4.90015679362,-0.71426132462,5.96219136262
10.0273186287,3.50703313839,-0.593256443415,4.82901835172
4.6878499817,0.483909483148,0.497748437785,4.32584534083
2.0083813347,-1.43921417209,-0.0912466810114,4.35267232993
5.6789126877,-3.70233782733,0.0297582001931,0.559499319037
-10.5405559593,-5.33546148256,1.4707630814,-2.63367369186
-4.34346293603,-4.51083575582,2.71165697674,-6.8020130814
-6.80643251578,-4.62652510415,2.79588408144,-4.05419840689
0.920597904471,0.527785547518,3.35011118614,-0.0763837323757
3.97762832473,3.68209619918,3.92433829083,2.55143094213
1.44465874498,0.0564068508502,3.26856539553,4.58924561664
11.6716891652,0.500717502517,3.81279250023,7.10706029115
10.0587195855,2.68502815418,3.24701960492,9.32487496566
14.9657500057,3.21933880585,3.66124670962,10.3026896402
11.802780426,1.25364945752,2.67547381432,4.56050431468
12.7198108462,6.72796010918,3.73970091901,5.76831898919
11.9068412665,3.10227076085,2.43392802371,5.5161336637
3.35387168675,-0.743418587484,0.528155128408,2.38394833821
3.750902107,2.36089206418,1.77238223311,1.56176301273
4.50793252725,4.59520271585,2.5066093378,0.929577687235
0.674962947505,0.299513367514,2.6508364425,1.39739236175
3.66199336776,0.343824019183,1.8150635472,-0.634792963743
10.019023788,2.18813467085,3.66929065189,-0.886978289234
4.44605420826,0.852445322515,2.67351775659,0.810836385277
-0.226915371484,2.78675597418,2.88774486129,-0.641348940215
1.93011504877,6.32106662585,3.97197196598,2.8164657343
-2.07285453098,-0.124622722491,1.93619907068,0.514280408806
0.394175889272,-5.65031207082,-0.959573824621,-3.19790491668
11.1812063095,-2.00600141915,-2.75534671993,-2.35009024217
1.22823672978,0.0983092325114,-1.62111961523,-0.0222755676623
-4.09473284997,-3.10738011582,-1.24689251053,-2.77446089315
2.02229757028,-0.273069464158,-0.382665405834,-1.63664621864
5.29932799053,1.83124118751,-0.208438301137,2.18116845587
5.24635841079,0.775551839175,-0.484211196441,-0.231016869622
-4.63661116896,-0.250137509156,-2.52998409174,-1.88320219511
-2.27958074871,-3.16582685749,-1.46575698705,-3.4553875206
-1.82255032845,-3.90151620582,-0.951529882348,-4.25757284609
4.2044800918,0.0927944458417,-1.14730277765,-3.13975817158
-3.79848948795,2.90710509751,-0.193075672954,-2.83194349707
-16.0814590677,-6.32858425083,-3.21884856826,-7.14412882256
-4.50442864744,-6.17427359916,-3.49462146356,-5.71631414805
-10.2173982272,-5.16996294749,-2.40039435887,-8.64849947354
-4.66036780694,-3.42565229583,-2.74616725417,-5.88068479903
-3.01333738668,2.22865835584,-3.02194014947,-1.38287012452
-8.58630696643,-2.20703099249,-4.07771304477,-3.98505545001
-6.03927654618,1.79727965917,-2.05348594008,0.2227592245
-1.56224612593,-1.06840968916,-3.01925883538,0.95057389901
4.15478429433,3.17590096251,-1.59503173068,-0.65161142648
-7.96818528542,-0.699788385828,0.209195374015,-3.60379675197
-10.4511548652,-2.73547773416,-0.316577521287,-4.70598207746
-15.3141244449,-8.81116708249,-3.05235041659,-8.34816740295
-8.18709402467,-8.83685643083,-3.77812331189,-8.60035272844
-16.5300636044,-9.33254577916,-2.8238962072,-8.46253805393
0.886966815844,-2.91823512749,-0.9696691025,-4.93472337942
-8.10600276391,-9.96392447583,-3.4154419978,-8.17690870491
-8.37897234365,-8.35961382416,-3.67121489311,-8.1590940304
-11.5419419234,-5.5453031725,-3.25698778841,-6.97127935589
-0.0749115031467,-4.09099252083,-4.51276068371,-3.57346468138
4.0521189171,-0.696681869162,-5.52853357901,3.12434999313
0.639149337356,-0.0323712174977,-4.08430647432,2.92216466764
0.186179757609,4.59193943417,-2.66007936962,2.62997934215
-2.85678982214,3.98625008584,-2.99585226492,5.48779401666
3.48024059811,6.0805607375,-0.501625160228,7.94560869117
-2.71272898163,10.3248713892,0.542601944469,7.21342336568
-2.58569856138,4.75918204083,-1.97317095083,4.99123804019
7.57133185888,1.2934926925,-0.458943846135,4.5490527147
-2.43163772087,0.237803344167,-1.63471674144,0.876867389214
0.935392699379,0.992113995831,-2.75048963674,1.39468206372
5.33242311963,2.6664246475,0.593737467954,2.93249673823
-9.40054646012,5.01073529917,1.94796457265,4.14031141274
-0.553516039865,5.52504595083,4.82219167735,3.66812608725
-6.33648561961,5.4593566025,4.70641878205,4.73594076177
-5.66945519936,1.81366725416,1.32064588674,2.34375543628
-11.5824247791,-0.962022094169,-0.965127008561,-2.28842988921
-6.64539435885,-1.7477114425,-1.51089990386,-1.7906152147
-9.7183639386,2.04659920916,0.243327200833,-1.10280054019
-13.7013335183,2.56090986083,-0.992445694468,2.78501413432
-6.9843030981,2.6452205125,-0.818218589773,2.13282880883
-7.56727267784,4.67953116416,-0.0239914850736,0.320643483336
-4.87024225759,3.15384181583,-0.659764380378,-0.791541842154
0.326788162663,6.74815246749,-0.665537275681,2.42627283236
-6.38618141709,4.53246311916,-0.0213101709833,2.30408750687
-3.81915099683,5.87677377083,-0.187083066288,2.53190218138
2.93787942342,-1.8389155775,-2.40285596159,-0.470283144114
-3.70509015633,-3.38460492584,-1.71862885689,-3.3024684696
-4.60805973607,-0.530294274173,-0.944401752196,-0.934653795093
1.57897068418,-4.61598362251,-2.5001746475,-0.116839120581
3.62600110443,-2.54167297084,-2.6359475428,-0.159024446073
3.17303152469,1.45263768083,-0.771720438106,2.36879022844
-0.0799380550634,1.73694833249,-0.977493333408,0.286604902947
-3.93290763481,-3.68874101584,-1.90326622871,-2.64558042254
5.29412278544,-3.71443036417,-1.47903912401,-1.21776574803
1.9111532057,-3.30011971251,-2.92481201932,-2.79995107352
-4.84181637405,-5.44580906084,-2.28058491462,-2.42213639901
7.1952140462,-1.18149840917,-2.24635780992,-1.1543217245
4.12224446645,0.472812242493,-0.972130705226,1.57349295001
12.4592748867,-0.00287710584234,-0.537903600529,2.89130762452
4.17630530696,0.421433545824,-0.303676495832,1.49912229903
4.90333572721,5.71574419749,1.44055060886,5.02693697354
8.14036614747,14.1600548492,4.51477771356,12.3647516481
13.5373965677,5.46436550083,4.36900481826,10.2125663226
2.17442698797,-0.611323847508,2.17323192296,5.54038099707
11.7114574082,1.30298680416,1.06745902765,2.18819567158
6.56848782847,-2.76270254418,-0.45831386765,0.446010346091
2.62551824873,-2.11839189251,-1.42408676295,-1.9561749794
3.87254866898,-1.05408124084,-0.669859658256,-0.0283603048883
7.61957908923,0.780229410822,1.80436744644,0.999454369621
-0.233390490514,-0.905459937509,0.318594551138,1.73726904413
2.68363992974,-0.571149285846,1.07282165583,0.945083718643
5.27067034999,2.94316136582,2.49704876053,0.522898393152
-2.51229922976,0.547472017486,2.19127586523,0.740713067662
5.65473119049,-0.868217330848,2.16550296993,-1.07147225783
0.281761610746,-4.62390667918,0.409730074623,-2.63365758332
-5.401207969,-2.02959602751,1.03395717932,-0.895842908807
-2.03417754875,-4.65528537585,1.00818428402,-1.7880282343
-5.79714712849,-3.47097472418,1.10241138871,-3.38021355979
9.52988329175,-2.17666407251,1.67663849341,0.487601114724
7.64691371201,-0.642353420848,1.67086559811,0.505415789234
4.91394413226,-0.708042769184,-0.414907297196,0.303230463744
-1.30902544748,-2.32373211751,-0.350680192498,-2.66895486175
3.97800497277,-5.35942146585,-1.3864530878,-1.06114018724
0.525035393021,-2.43511081418,-0.392225983103,0.0366744872754
2.13206581328,0.379199837484,0.942001121592,0.904489161785
1.17909623353,2.43351048915,2.07622822629,1.1523038363
0.306126653777,3.29782114082,3.52045533099,0.210118510804
-5.11684292597,1.06213179248,3.60468243568,1.38793318531
-4.62981250571,1.19644244415,3.43890954038,-0.0642521401751
-9.48278208546,2.91075309581,2.04313664508,1.45356253434
-3.81575166521,-1.71493625252,-0.732636250224,-2.70862279115
-4.04872124496,-1.07062560085,-0.00840914552828,-6.21080811664
-1.75169082471,0.173685050813,0.38581795917,-4.05299344214
5.32533959554,4.39799570248,2.46004506386,0.334821232376
4.2623700158,0.772306354149,1.06427216856,-1.12736409311
8.14940043605,-3.20338299419,-0.231500726741,-2.3995494186
8.50260901164,-1.92973837209,-0.491071947677,9.30283793604
5.5364790961,-3.05048806308,-0.219871503619,9.03990077367
9.37034918056,-1.29123775407,-1.36867105956,9.10696361129
8.66421926502,-1.60198744506,-2.1674706155,8.50402644891
2.79808934949,-4.62273713605,-3.50627017145,3.99108928653
2.07195943395,-1.19348682704,-3.40506972739,4.79815212415
5.44582951841,-2.53423651803,-3.08386928333,5.69521496177
3.12969960287,3.07501379097,-0.872668839271,9.14227779939
3.40356968734,-0.595735900017,-1.91146839521,7.12934063702
8.6974397718,1.83351440899,-1.99026795116,7.73640347464
6.49130985626,-0.857235281997,-2.4590675071,6.51346631226
6.28517994072,-0.49798497299,-2.89786706304,5.60052914988
8.54905002519,-2.06873466398,-3.29666661898,1.8675919875
10.6829201096,2.91051564503,-1.04546617492,4.86465482512
10.7367901941,3.55976595404,-0.704265730867,6.99171766274
-0.669339721429,-0.720983736952,-4.14306528681,-1.09121949964
-3.16546963696,3.72826657206,-1.61186484275,-0.554156662014
-13.7215995525,-0.392483118932,1.65933560131,-5.04709382439
-4.11772946804,-3.41323280993,0.0805360453651,-2.58003098677
-0.663859383578,-6.32398250092,1.85173648942,-6.24296814915
-2.88998929911,-5.3247321919,1.21293693348,-8.52590531153
-7.34611921465,-9.54548188289,0.774137377539,-8.84884247391
-4.27224913019,-8.72623157389,1.4253378216,-10.3517796363
-6.58837904573,-5.21698126488,1.85653826565,-8.66471679866
-2.39450896126,-5.89773095587,0.167738709713,-5.95765396104
-3.0606388768,-2.65848064686,0.52893915377,-4.48059112342
-4.16676879234,-2.57923033785,0.200139597828,-5.5035282858
-4.82289870788,-2.28998002884,0.841340041887,-6.17646544818
-0.789028623414,-3.07072971983,-1.92745951406,-7.30940261056
0.564841461048,-2.50147941082,-3.21625907,-5.65233977294
3.21871154551,-3.35222910181,-4.14505862594,-5.80527693532
1.79258162997,-0.782978792802,-3.80385818188,-6.27821409769
3.32645171443,-1.08372848379,-3.66265773782,-4.17115126007
-2.1196782011,0.165521825216,-3.34145729377,-3.76408842245
1.58419188336,3.51477213423,-3.09025684971,1.98297441517
-4.68193803218,5.61402244323,-0.649056405651,1.11003725279
-0.878067947713,3.53327275225,-0.307855961593,-1.99289990959
2.82580213675,4.08252306125,-0.676655517536,-2.21583707197
5.33967222121,1.66177337026,-0.765455073477,-0.018774234346
3.47354230567,-0.0189763207272,-1.38425462942,-3.68171139672
5.27741239014,3.27027398828,0.546945814638,0.415351440897
1.22128247459,0.739524297293,1.7681462587,0.102414278519
-1.56484744094,0.3487746063,3.50934670275,0.799477116139
9.84902264352,0.528024915311,3.21054714681,5.38653995376
2.93289272799,-2.63272477568,1.63174759087,-0.736397208617
-4.23323718755,1.36652553333,3.85294803493,2.350665629
0.830632896908,1.02577584234,3.34414847899,0.537728466625
-0.875497018631,-4.72497384865,1.62534892304,-5.71520869575
-6.75162693416,-4.27572353964,1.8365493671,-8.23814585813
-8.76775684971,-3.18647323063,-0.052250188839,-9.08108302051
-1.89388676524,0.382777078376,-0.451049744783,-6.75402018289
-5.57001668078,-4.24797261261,-0.489849300726,-5.85695734527
-4.93614659632,-1.67872230361,0.0313511433324,-3.61989450765
-3.80227651185,0.820528005403,-0.587448412611,-4.51283167003
1.70159357261,9.14977831441,2.12375203145,-0.215768832402
-4.83453634293,11.2290286234,2.35495247551,3.07129400522
-3.64066625847,8.69827893243,2.38615291956,3.69835684284
3.753203826,7.14752924144,3.32735336362,4.32541968046
1.30707391046,8.24677955045,4.65855380768,6.57248251808
4.00094399492,8.50602985946,5.03975425174,6.2995453557
-8.39518592062,9.79528016847,5.3609546958,6.05660819332
-13.1413158362,11.9145304775,7.51215513985,6.01367103095
-6.91744575169,8.82378078649,8.37335558391,1.97073386857
-10.0435756672,8.98303109549,7.66455602797,1.84779670619
-13.0397055828,13.5122814045,9.72575647203,2.96485954381
-9.47583549831,7.49153171351,6.93695691609,0.641922381432
-7.57196541384,3.91078202252,6.18815736014,2.40898521905
-8.53809532938,4.00003233153,6.2193578042,6.74604805667
0.275774755086,9.42928264054,4.97055824826,10.3531108943
-1.10035516046,11.5485329495,5.94175869232,12.7901737319
-2.13648507599,9.44778325856,4.31295913638,11.0772365695
2.83738500847,10.2870335676,3.09415958043,12.3942994072
6.87125509293,12.1562838766,3.18536002449,13.9013622448
14.6251251774,12.6455341856,2.41656046855,12.3584250824
7.83899526186,8.1547844946,0.167760912605,6.95548792002
6.46286534632,8.3740348036,-0.361038643336,4.76255075764
-2.71326456921,9.39328511262,1.83016180072,5.27961359527
1.41060551524,3.67253542163,1.12136224478,3.87667643289
-4.74552440029,-1.58821426937,-0.877437311163,-3.40626072949
-6.52165431583,1.60103603964,1.4337631329,-2.28919789187
-7.55778423137,-0.80971365135,0.544963576955,-5.48213505425
-8.93391414691,-5.02046334234,0.0161640210117,-10.9750722166
-10.4900440624,-7.91121303333,-1.05263553493,-9.29800937901
-8.59617397798,-7.71196272432,-2.10143509087,-9.49094654139
-8.41230389352,-11.4727124153,-5.76023464681,-13.6938837038
-7.54843380906,-15.7434621063,-6.63903420276,-15.8168208661
-2.30456372459,-8.44421179729,-5.1578337587,-8.81975802852
-6.16069364013,-8.24496148828,-5.75663331464,-8.7426951909
-8.76682355567,-9.76571117928,-5.25543287058,-12.8756323533
-1.7329534712,-11.8764608703,-5.81423242652,-14.7485695157
-1.11908338674,-8.11721056125,-5.15303198247,-12.421506678
-3.29521330228,-8.86796025224,-5.53183153841,-12.0444438404
2.78865678218,-15.4387099432,-5.45063109435,-13.1773810028
2.93252686664,-11.3094596342,-3.47943065029,-12.9103181652
-6.61360304889,-12.5402093252,-3.55823020624,-13.4432553276
-3.49973296443,-10.1509590162,-5.13702976218,-13.5261924899
-1.85586287997,-13.5517087072,-6.63582931812,-13.3691296523
-5.73199279551,-9.33245839819,-3.83462887406,-9.14206681469
-0.0881227110403,-7.19320808918,-2.84342843,-7.90500397706
-5.04425262658,-8.25395778017,-3.50222798595,-6.06794113944
-7.33038254212,-7.06470747116,-3.72102754189,-3.01087830182
1.69348754234,-7.38545716215,-0.289827097831,-1.3538154642
2.30735762681,-2.67620685314,0.921373346227,4.35324737342
8.37122771127,0.113043455865,2.74257379028,6.46031021104
11.0450977957,4.49229376488,5.04377423434,7.12737304866
6.9889678802,6.01154407388,2.9349746784,10.0644358863
8.41283796466,3.81079438289,2.64617512246,12.3014987239
1.80670804912,2.0000446919,3.52737556652,7.29856156153
-1.93942186642,3.93929500091,2.21857601057,4.36562439915
-1.01555178195,-2.52145469008,0.609776454634,1.42268723677
-2.81168169749,0.30779561893,0.190976898692,1.89975007439
-0.807811613031,-1.26295407206,-0.737822657251,1.74681291201
3.96605847143,-2.13370376305,-0.0766222131933,4.09387574963
9.51992855589,-1.33445345404,-0.095421769136,5.73093858725
3.98379864036,2.01479685497,-0.0642213250794,5.97800142488
5.22766872482,6.01404716398,-0.353020881021,8.1650642625
6.33153880928,6.74329747299,0.528179563038,10.4721271001
5.71540889374,10.472547782,2.0093800071,14.4591899377
11.1392789782,4.74179809101,0.210580451154,9.67625277536
9.74314906267,5.72104840001,0.521780895211,5.50331561298
6.66701914713,6.73029870902,0.202981339269,8.7003784506
9.85088923159,5.71954901803,0.584181783328,6.57744128822
7.04475931606,4.14879932704,0.325382227385,2.71450412585
-0.0913705994826,-4.28195036395,-1.92341732856,-1.52843303653
-1.55750051502,-2.81270005494,-2.3422168845,-1.88137019891
2.16636956944,-1.63344974593,-3.32101644044,0.17569263871
2.51023965391,3.63580056308,-1.00981599638,2.39275547633
-3.03589026163,-5.55494912791,-2.51861555232,-3.95018168605
-5.06214389535,-7.89172238371,-2.60079215117,-6.83665697675
-4.18531756432,-4.7395360568,-2.61691648737,-3.6100831464
-2.95849123329,-5.68734972989,-4.36304082357,-4.08350931606
3.66833509774,-5.99516340299,-3.97916515977,-4.36693548572
6.74516142877,-3.19297707608,-3.11528949598,-0.730361655376
10.3519877598,-1.40079074917,-3.88141383218,0.196212174968
3.96881409083,-5.56860442226,-5.94753816838,-3.40721399469
2.59564042186,-4.47641809535,-5.33366250458,-3.00064016435
3.01246675288,-4.16423176845,-3.77978684079,-1.75406633401
-0.280706916084,-3.47204544154,-2.94591117699,-4.19749250366
-0.313880585058,-2.38985911463,-2.39203551319,-3.90091867332
0.542945745972,-1.11767278772,-0.928159849393,-2.54434484298
2.789772077,-2.12548646081,-0.464284185593,-2.03777101264
1.28659840803,-3.0433001339,0.459591478206,-1.33119718229
3.89342473906,-0.641113806989,1.143467142,-0.0746233519512
3.68025107009,1.70107251992,-0.00265719419986,-1.70804952161
-0.582922598882,-4.80674115317,-2.1687815304,-3.37147569127
3.23390373215,0.605445173736,-2.7749058666,0.145098139077
5.70073006317,-1.03236849935,-2.94103020281,0.34167196942
2.58755639421,-2.22018217244,-2.08715453901,1.06824579976
1.30438272524,-3.90799584554,-2.20327887521,-1.9851803699
5.87120905627,-3.66580951863,-3.32940321141,-2.07860653955
1.03803538729,1.71637680828,-3.25552754761,0.0279672907891
0.844861718324,-1.30143686481,-3.51165188382,-1.45545887887
0.301688049352,0.700749462099,-1.48777622002,1.04111495147
-5.14148561962,-2.02706421099,-1.80390055622,-2.75231121818
-5.73465928859,-2.29487788408,-2.44002489242,-2.42573738784
-2.90783295756,2.41730844283,-0.846149228626,1.6808364425
3.45899337347,4.05949476974,-0.612273564828,4.30741027284
0.695819704499,6.96168109664,-0.0183979010308,5.97398410319
4.82264603553,7.90386742355,1.20547776277,5.63055793353
0.0494723665543,9.48605375046,1.43935342657,5.99713176387
-4.65370130241,7.39824007737,3.35322909037,3.35370559421
1.64312502862,9.59042640428,4.83710475416,5.00027942456
-1.41004864036,8.75261273119,4.67098041796,3.8868532549
-4.39322230933,3.9647990581,3.05485608176,5.22342708524
-5.2563959783,6.446985385,5.38873174556,5.66000091558
-3.58956964727,8.15917171191,6.49260740935,4.93657474593
-0.672743316241,8.07135803882,5.65648307315,5.97314857627
2.24408301479,4.15354436573,5.29035873695,6.85972240661
-4.08909065418,3.54573069264,4.54423440075,6.28629623695
-4.12226432316,7.31791701955,4.63811006454,4.7128700673
2.71456200787,4.74010334646,4.74198572834,3.36944389764
1.1813883389,6.35228967337,3.74586139214,4.74601772798
-7.34178533007,-5.63552399972,-0.100262944061,-2.95740844168
-9.41495899904,-3.00333767281,1.20361271974,-2.70083461133
-7.94813266801,-0.951151345904,2.82748838353,-1.65426078099
1.15869366302,-0.258965018995,2.77136404733,-1.80768695065
-5.77448000595,-2.16677869209,2.60523971113,-3.91111312031
-3.21765367492,5.71540763482,4.46911537493,1.99546071004
-0.340827343894,0.887593961728,2.69299103873,0.242034540379
5.18599898714,-0.930219711361,1.72686670252,1.95860837072
1.53282531817,7.89196661555,4.40074236632,6.52518220106
3.50965164919,4.38415294246,3.42461803012,3.79175603141
4.70647798022,4.46633926937,4.50849369392,4.62832986175
-5.53669568875,2.91852559627,5.79236935772,4.37490369209
-0.64986935772,3.97071192318,5.31624502151,4.23147752243
5.39695697331,4.36289825009,4.66012068531,4.80805135277
-2.21621669566,2.015084577,2.27399634911,1.86462518312
-2.48939036463,-1.38272909609,1.01787201291,-2.00880098654
-4.7625640336,-2.71054276918,3.42174767671,-5.8822271562
-6.33573770257,3.45164355773,2.0656233405,-1.00565332586
-3.30891137154,1.46382988464,-0.1505009957,-4.56907949551
-5.44208504051,-1.45398378845,-0.656625331902,-4.69250566517
-8.10525870948,3.14820253846,0.137250331896,0.784068165174
-2.28843237845,1.49038886536,0.221125995695,1.98064199551
1.88839395257,5.69257519227,1.90500165949,3.99721582586
0.755220283605,6.31476151918,2.91887732329,3.5837896562
2.31204661463,1.52694784609,3.29275298709,-0.419636513456
1.69887294566,3.239134173,1.87662865089,0.256937316884
2.13569927669,4.78132049991,1.04050431468,0.543511147229
-6.52747439228,-2.82649317318,-0.645620021518,-5.29991502243
-4.30064806125,-4.19430684628,-1.10174435772,-4.50334119209
-6.61382173022,-3.12212051937,0.542131306078,-5.27676736175
-13.3769953992,-3.70993419245,1.24600696988,-2.5401935314
-2.01016906817,-1.02774786555,1.04988263367,0.64638029894
-2.93334273713,4.30443846136,1.06375829747,1.71295412928
-4.2365164061,-0.863375211728,-0.372366038731,-1.36047204037
2.10030992492,-4.71118888482,-1.43849037493,-1.99389821003
1.28713625595,-2.60900255791,-1.24461471114,2.95267562031
-1.00603741302,0.733183768996,-0.540739047337,4.95924945065
0.90078891801,-0.694629904097,-0.66686338354,3.695823281
1.24761524904,-5.55244357719,-2.59298771974,1.36239711134
2.51444158007,-2.38025725028,-1.25911205594,3.82897094168
1.8812679111,-7.28807092337,-3.48523639215,-2.48445522798
2.37809424213,-9.81588459646,-5.11136072835,-5.68788139763
4.58492057315,-10.5136982696,-5.02748506455,-8.82130756729
3.17174690418,-5.57151194264,-2.62360940075,-3.15473373695
4.09857323521,-1.82932561573,-1.22973373695,3.63184009339
1.49539956624,-3.59713928882,-1.14585807316,2.29841392373
2.24222589727,-2.90495296192,-1.56198240936,-0.395012245923
4.3990522283,2.657233365,-0.53810674556,2.97156158442
0.58587855933,-4.95058030809,-3.16423108176,-3.20186458524
1.00270489036,-4.36839398119,-1.86035541796,-3.08529075489
0.769531221387,1.21379234572,0.103520245833,-0.118716924553
3.46635755242,-1.89402132737,-1.63260409037,-1.83214309421
-1.32681611655,-2.77183500046,-0.998728426572,-4.76556926387
0.380010214478,-4.71964867355,-2.45485276277,-6.62899543352
3.59683654551,-3.00746234664,-1.57097709897,-5.43242160318
3.36366287653,-4.82527601974,0.832898564822,-1.33584777284
0.890489207566,-1.96308969282,0.61677422862,-2.2592739425
3.69731553859,-6.15090336592,-1.35935010758,-2.38270011216
3.97414186962,-2.90871703901,-2.75547444378,0.163873718186
3.38096820065,-8.4865307121,-2.99159877999,-6.30955245147
0.57779453168,-7.52434438519,-0.767723116187,-5.40297862113
1.30462086271,-3.59215805828,-1.20384745239,-0.876404790784
3.29144719374,-5.69997173137,-2.90997178859,-1.52983096044
5.12827352477,-3.84778540446,-3.38609612479,-1.7932571301
4.1850998558,1.19440092244,-1.742220461,1.84331670024
2.12192618682,-3.70341275065,-1.6183447972,-0.0201094694148
0.478752517854,-5.72122642374,-1.6544691334,-0.943535639073
1.84557884888,-6.45904009683,-2.5805934696,-2.72696180873
-0.437594820087,-1.67685376992,-2.1467178058,-2.35038797839
3.18923151094,-0.124667443011,-1.57284214201,1.21618585196
-0.483942158029,1.0375188839,-0.468966478209,-1.3672403177
-2.477115827,0.899705210806,0.794909185588,-1.87066648736
-0.770289495973,1.85189153772,2.14878484939,-0.984092657018
-5.05346316494,3.97407786463,2.34266051318,-1.39751882668
-4.59663683391,6.02626419154,2.91653617698,0.139055003667
0.850189497116,0.708450518443,1.16041184078,-1.43437116599
1.71701582814,3.96063684535,1.41428750458,1.54220266435
-1.46615784083,5.68282317226,1.53816316838,0.618776494695
2.9906684902,2.63500949917,-1.90796116783,-0.644649674963
1.03749482123,6.45719582608,-0.914085504028,2.16192415538
2.29432115226,5.86938215299,0.0597901597685,3.76849798572
1.30114748329,4.6115684799,-0.886334176432,5.94507181606
-9.95202618568,5.8137548068,-0.832458512634,5.44164564641
-2.13519985465,11.8659411337,1.64141715116,8.58821947675
5.66528343025,5.96300872093,-0.251199127912,5.71570494186
12.3069115947,4.27917566037,-0.318704850308,4.79399969671
6.27853975922,3.5753425998,-1.3962105727,3.67229445157
7.6901679237,7.10150953924,-0.613716295096,7.91058920642
11.4917960882,9.30767647867,-1.62122201749,9.76888396127
12.7934242527,3.8238434181,-1.57872773989,7.01717871612
6.86505241715,7.23001035754,0.473766537718,8.01547347098
10.7866805816,11.876177297,1.74626081532,12.1437682258
6.75830874612,6.7923442364,0.658755092929,6.71206298068
5.26993691061,3.84851117584,-0.418750629467,4.92035773553
0.111565075091,6.34467811527,2.10374364814,6.76865249039
2.23319323958,5.85084505471,3.12623792574,8.86694724524
6.70482140406,3.31701199414,2.14873220335,6.09524200009
5.18644956854,4.33317893358,1.31122648095,9.03353675495
6.24807773303,4.85934587301,0.0437207585564,6.1318315098
-0.0802941024886,1.49551281244,-0.453784963838,1.50012626465
1.081334062,2.00167975188,-1.64129068623,4.3284210195
7.01296222648,2.75784669131,-0.838796408629,2.69671577435
3.90459039096,1.83401363075,-0.976302131023,2.82501052921
2.09621855545,8.97018057018,-0.123807853419,10.1333052841
5.27784671994,4.00634750961,0.208686424186,4.87160003891
0.73947488442,0.642514449049,0.361180701791,3.05989479377
3.7811030489,2.97868138848,-0.326325020604,5.42818954862
9.28273121339,3.60484832792,0.186169257002,4.45648430347
5.55435937787,2.72101526735,0.668663534605,5.84477905832
9.87598754236,3.40718220679,1.81115781221,4.34307381318
3.07761570684,4.62334914622,2.95365208982,7.17136856803
6.54924387133,4.81951608565,2.85614636742,8.48966332288
5.43087203581,3.82568302509,1.84864064502,5.35795807773
9.9525002003,3.68184996452,1.45113492263,7.07625283259
-2.27587163522,1.16801690395,0.463629200236,2.55454758744
2.35575652926,0.424183843388,1.28612347784,1.63284234229
4.07738469375,-7.58964921718,-1.48138224456,-3.03886290286
3.49901285823,-7.35348227774,-1.28888796695,-3.540568148
4.02064102272,-7.30731533831,-2.78639368934,-2.78227339315
0.672269187202,-5.15114839888,-2.20389941174,-1.6439786383
-4.44610264831,-6.52498145944,-1.27140513414,-1.67568388345
-1.80447448383,0.151185479994,-0.35891085653,-2.12738912859
-1.44284631934,-2.40264758057,-1.58641657893,-2.45909437374
-0.441218154861,-3.55648064114,-1.00392230132,-2.20079961889
-2.59958999038,-4.5203137017,-2.12142802372,-5.64250486403
-1.63796182589,-0.774146762269,-1.11893374611,-4.57421010918
-5.27633366141,-9.23797982284,-3.6664394685,-9.18591535433
-12.6547054969,-8.7518128834,-1.9739451909,-10.9076205995
-11.3330773324,-7.55564594397,0.00854908670226,-8.47932584462
-7.73144916795,-3.24947900453,1.75104336431,-7.90103108977
-10.8498210035,-0.0833120651005,2.89353764191,-5.44273633492
-5.41819283898,0.422854874334,2.95603191952,-1.96444158007
-6.1365646745,-0.990978186233,1.61852619712,-2.68614682521
-11.51493651,-0.804811246799,2.55102047473,-5.23785207036
-7.46330834553,-1.34864430736,1.01351475233,-4.04955731551
-4.51168018105,-11.6824773679,-2.39399097006,-8.15126256066
-7.80005201656,-8.85631042849,-1.32149669246,-10.0929678058
-10.8784238521,-6.60014348906,-1.22900241485,-11.8646730509
-5.3767956876,-6.74397654963,-1.63650813725,-11.9163782961
-7.87516752311,-8.40780961019,-0.344013859643,-12.3180835412
-13.5935393586,-8.73164267076,1.51848041796,-13.1997887864
-17.2419111941,-9.96547573132,-0.229025304432,-13.5314940315
-11.1602830297,-10.5093087919,-1.30653102683,-12.2431992767
-10.3286548652,-9.53314185245,-0.614036749224,-11.1049045218
-16.1570267007,-8.18697491302,-0.531542471619,-11.626609767
-11.4853985362,-8.81080797359,-0.479048194013,-9.30831501213
-8.97377037172,-7.23464103416,0.293446083593,-8.86002025728
-6.83214220723,-6.46847409472,0.785940361196,-11.2617255024
-10.8205140427,-9.06230715529,-0.4415653612,-12.6734307476
-10.7988858783,-8.42614021585,-0.799071083593,-12.4751359927
-7.33725771378,-8.29997327642,-0.556576805988,-12.6768412379
-10.3056295493,-6.99380633698,1.33591747162,-10.538546483
-16.2940013848,-6.92763939755,1.82841174922,-10.7002517282
-10.7023732203,-2.20147245811,2.16090602683,-6.32195697331
-13.0907450558,-6.23530551868,1.62340030443,-8.49366221845
-11.7891168914,-6.05913857925,2.27589458204,-9.0353674636
-16.0774887269,-3.90297163981,1.95838885964,-8.96707270875
-9.59586056239,-2.83680470038,0.880883137246,-6.2687779539
-6.66423239791,-2.38063776094,0.0733774148503,-6.36048319905
-4.85260423342,2.19552917849,1.28587169245,-3.50218844419
-4.62097606894,0.351696117927,0.988365970061,-0.873893689341
0.610652095544,0.00786305735892,-0.669139752334,3.48440106551
-0.747719739968,4.25402999679,0.83335452527,3.52269582037
3.38390842452,-3.44980306377,-2.43415119713,-0.749009424781
5.605536589,-6.05363612434,-3.42165691952,-3.10071466993
6.31716475349,-1.96746918491,-0.669162641914,-1.34241991508
-1.07120708203,2.57869775453,-0.586668364311,0.985874839776
4.07042108245,-0.285135306036,-3.82417408671,1.22416959463
7.58204924694,3.0610316334,-2.1516798091,2.85246434948
5.88367741142,-0.722801427168,-2.73918553149,0.590759104334
-0.0146944240914,-5.89663448773,-3.94669125389,-1.13094614081
2.91693374039,-3.3604675483,-3.47419697629,-0.152651385961
-3.36143809513,-5.02430060886,-3.21170269868,-3.51435663111
0.020190069361,2.52186633057,-1.30920842107,0.0839381237438
2.32181823384,-2.42196673,-3.16671414347,-2.8977671214
3.98344639833,-2.94579979056,-3.64421986587,-2.67947236655
-5.09492543718,-2.95963285113,-4.20172558826,-2.3411776117
3.7667027273,-2.36346591169,-3.72923131066,-1.72288285685
-1.22166910822,0.0627010277385,-3.32673703305,2.31541189801
-4.01004094374,1.46886796717,-1.63424275545,-0.456293347139
-1.34841277925,1.05503490661,-0.0517484778411,-2.55799859229
-0.586784614763,-2.88879815396,-0.859254200239,-3.16970383744
0.174843549717,1.10736878547,0.0632400773666,0.918590917418
0.406471714203,4.02353572491,1.82573435497,1.64688567227
1.92809987869,0.709702664342,2.95822863258,1.53518042712
1.52972804317,6.51586960378,5.22072291018,6.53347518198
-1.30864379234,6.90203654321,4.81321718779,6.29176993683
2.76298437214,8.74820348265,4.09571146539,5.84006469168
-1.48538746337,8.67437042208,3.108205743,5.38835944654
1.04624070111,14.6105373615,3.2407000206,10.8566542014
1.31786886559,9.68670430095,1.56319429821,9.40494895624
3.99949703008,8.54287124038,1.58568857581,4.86324371109
2.28112519456,12.7990381798,3.72818285342,9.08153846595
6.82275335905,11.5152051193,3.04067713102,9.9498332208
2.96438152354,5.50137205869,2.12317140863,6.02812797565
-2.31399031198,7.11753899812,2.58566568623,5.5564227305
4.7976378525,5.88370593755,1.73815996384,3.67471748536
5.58926601698,8.95987287699,3.05065424144,7.27301224021
8.87089418147,9.06603981642,2.69314851905,8.65130699506
5.05252234596,10.6822067559,3.58564279665,7.79960174991
6.62415051044,6.08837369529,2.59813707426,6.94789650477
5.70577867492,9.50454063472,2.75063135186,11.9061912596
10.2274068394,11.9307075742,2.55312562947,15.2044860145
12.0390350039,7.54687451359,-0.13438009293,14.8027807693
10.1006631684,6.03304145303,-1.36188581533,12.8110755242
11.8622913329,4.66920839246,-1.51939153772,9.51937027903
7.19391949735,-2.42462466811,-2.16689726011,2.78766503388
8.47554766183,1.70154227133,-0.0744029825091,4.97595978873
8.09717582631,-8.64229078924,-4.03190870491,-1.44574545641
10.7188039908,-18.9061238498,-7.6094144273,-11.3974507016
3.43043215528,-11.5599569104,-2.55692014969,-8.53915594671
-4.27793968023,-13.9837899709,-3.45442587209,-7.54086119186
-21.2469918699,32.6919958038,-2.23461316549,23.8932953055
-20.6566080234,36.8119497577,0.175233218537,22.2931986345
-17.006224177,36.8019037116,0.375079602563,19.9931019635
