-5.22943677325,5.53569040698,3.38047238372,8.4072056686
-3.2707731528,-5.19054955022,-3.92895680737,-0.584204558465
-6.84210953236,-8.16678950741,-7.51838599845,-4.29561478553
-4.01344591191,-14.5030294646,-7.44781518953,-6.36702501259
-2.02478229147,-9.47926942181,-6.68724438061,-5.01843523966
0.833881328974,-12.005509379,-5.09667357169,-4.55984546672
0.89254494942,-9.0417493362,-4.82610276278,-2.27125569379
-3.59879143014,-5.3379892934,-3.39553195386,-1.37266592085
0.97987219031,-3.73422925059,-2.54496114494,0.0659238520821
4.10853581076,-4.88046920779,-2.02439033602,4.25451362502
-0.5228005688,-5.17670916499,-2.3538195271,2.13310339795
-3.83413694836,-3.25294912218,-2.58324871819,-3.66830682911
-4.26547332791,-3.43918907938,-1.50267790927,-5.10971705617
5.90319029253,0.664570963425,-0.582107100352,0.888872716761
-3.66814608702,-1.75166899377,-1.09153629143,-1.5225375103
-6.52948246658,-2.46790895097,1.29903451748,-1.71394773737
-3.54081884613,0.0958510918335,1.7996053264,3.61464203557
-0.502155225688,6.00961113464,2.83017613532,6.8132318085
3.72650839476,0.863371177442,1.38074694424,2.87182158144
4.4051720152,1.61713122025,1.51131775316,3.23041135437
2.37383563565,4.03089126305,1.83188856207,4.82900112731
-1.29750074391,3.75465130585,3.35245937099,5.39759090024
0.781162876538,7.21841134866,5.27303017991,6.80618067317
5.06982649698,9.09217139146,6.10360098883,3.30477044611
5.97849011743,5.79593143426,5.39417179775,1.39336021905
6.02715373788,5.38969147707,4.12474260666,5.33194999198
4.83581735832,2.74345151987,2.51531341558,3.08053976492
5.34448097877,-0.322788437326,0.5958842245,1.56912953785
4.22314459921,-0.499028394523,-0.133544966584,0.927719310788
-0.268191780349,-3.50526835172,1.22702584233,-3.44369091628
-1.8595281599,3.06849169108,3.68759665125,-2.20510114334
-1.41086453946,-2.97774826611,2.88816746017,-5.5365113704
5.70779908099,-3.85398822331,1.36873826909,-4.49792159747
1.07646270143,-2.20022818051,-0.280690921994,-5.13933182453
-0.484873678124,2.9535318623,1.77987988692,0.709257948402
-3.46621005768,3.9572919051,2.83045069584,0.417847721339
-2.92754643723,3.9310519479,2.39102150476,-4.06356250573
-3.95888281679,3.63481199071,2.26159231368,-4.05497273279
0.0397808036578,3.17857203351,0.992163122593,0.803617040146
-0.0815555759,2.28233207631,2.46273393151,-1.66779318692
-2.38289195545,2.85609211912,1.59330474043,0.550796586016
4.54577166499,3.15985216192,0.353875549348,-2.28061364105
6.48443528544,2.06361220472,-0.765553641733,-2.14202386811
12.9230989059,3.35737224753,-1.54498283281,1.30656590482
15.7817625263,3.60113229033,0.535587976101,3.41515567776
8.98042614677,9.91489233314,2.10615878502,7.38374545069
11.8390897672,10.8986523759,2.15672959394,7.70233522363
7.44775338766,9.61241241874,2.39730040286,6.16092499657
7.18641700811,15.3561724615,4.23787121177,11.1395147695
12.8350806286,12.3599325043,4.19844202069,6.13810454244
9.633744249,8.86369254715,2.15901282961,1.78669431537
8.22240786944,11.89745259,4.71958363853,5.54528408831
4.64107148988,8.94121263276,3.69015444744,9.48387386124
8.12973511033,10.0349726756,2.22072525636,15.7324636342
11.4283987308,8.30873271837,1.68129606528,10.3310534071
5.05706235122,1.57249276117,0.681866874198,7.73964318005
6.10572597166,0.246252803974,-1.34756231689,1.86823295298
4.56438959211,4.18001284678,-0.766991507966,-0.423177274079
-1.94694678745,3.19377288958,1.47357930095,-1.86458750115
-6.468283167,1.14753293238,2.07415010987,-3.53599772821
-4.11961954656,-2.22870702481,0.944720918786,-4.53740795527
-6.81095592611,1.34505301799,1.7952917277,-1.84881818234
-3.05229230567,3.41881306079,1.59586253662,-1.3702284094
1.45637131478,3.5925731036,2.04643334554,0.578361363532
-5.83496506478,6.4863331464,4.28700415446,-0.55304886353
-12.0763014443,5.79009318921,5.51757496338,-2.2144590906
-8.20763782389,-0.626146767992,2.05814577229,-5.33586931766
-5.45897420344,-2.62238672519,-0.871283418788,-6.89727954473
-5.600310583,-3.94862668238,-2.83071260987,-8.16868977179
-4.28164696255,-7.03486663958,-3.59014180095,-7.82009999886
-2.76298334211,-8.20110659678,-4.14957099203,-6.20151022592
-6.01431972166,-7.93734655397,-3.47900018312,-6.35292045299
-10.8656561012,-4.72358651117,-3.1184293742,-4.24433068005
-14.0669924808,-3.98982646837,-1.85785856528,-4.37574090711
-11.4783288603,-5.89606642556,-1.13728775636,-6.26715113418
-7.96966523988,-13.7723063828,-4.89671694745,-13.8785613612
-6.65100161944,-12.20854634,-5.78614613853,-12.7999715883
-11.772337999,-9.40478629715,-6.07557532961,-10.2213818154
-9.09367437855,-6.54102625435,-5.68500452069,-7.33279204244
-8.9250107581,-2.05726621155,-3.33443371177,-1.7142022695
-7.93634713766,-8.92350616874,-3.42386290286,-2.53561249657
-5.10768351721,-4.92974612594,-2.75329209394,-0.807022723631
-3.33901989677,-4.62598608314,-3.37272128502,0.0715670493046
-8.40035627632,-4.18222604033,-4.1721504761,-0.609843177761
-9.18169265588,-7.24846599753,-3.32157966719,-0.241253404824
-8.35302903544,-10.5347059547,-5.80100885827,-5.87266363189
-7.44436541499,-5.67094591192,-5.44043804935,-6.48407385896
-2.99570179455,-3.19718586912,-1.50986724043,-4.08548408602
-8.0070381741,-0.983425826316,0.200703568486,-2.64689431308
-9.43837455365,-3.04966578351,1.4712743774,-2.73830454015
-6.44971093321,0.724094259293,2.08184518632,1.57028523279
-4.80104731276,2.46785430209,1.05241599524,3.49887500572
-6.97238369232,2.7716143449,0.272986804157,1.24746477866
-2.93372007187,3.3053743877,0.483557613075,-0.223945448404
-4.20505645143,-1.04086556949,-1.66587157801,-5.75535567547
-3.29639283098,-2.76710552669,-1.59530076909,-5.48676590253
-2.77772921054,-3.71334548389,-0.944729960171,-4.7581761296
-2.15906559009,-1.67958544108,-0.314159151254,-2.60958635666
3.24959803035,0.324174601719,-1.09358834234,-1.01099658373
1.5182616508,-4.71206535548,-2.83301753342,-1.85240681079
0.60692527124,-3.52830531267,-0.3024467245,-0.323817037857
3.05558889169,-3.82454526987,-0.771875915583,-0.56522726492
1.89425251213,-4.28078522707,-1.19130510666,-1.58663749199
1.69291613258,-2.46702518426,-0.560734297747,-1.37804771905
8.95157975302,-5.06326514146,-0.720163488828,0.620542053886
8.63024337347,-3.48950509866,-0.79959267991,4.10913182682
5.85890699391,-0.585745055852,0.0709781290079,4.96772159976
6.36757061435,4.18801498695,1.17154893793,6.69631137269
9.7462342348,2.20177502975,-0.507880253157,4.31490114563
4.86489785524,0.475535072559,-0.67730944424,4.45349091856
6.42356147569,2.07929511536,0.683261364678,4.21208069149
15.8322250961,6.65305515817,1.9438321736,8.52067046443
17.8008887166,4.25681520097,1.72440298251,11.1392602374
10.239552337,1.08057524377,-0.0850262085678,4.2178500103
2.43821595747,4.02433528658,1.41554460035,2.72643978324
2.63687957792,4.43809532938,0.366115409268,6.66502955617
1.44554319836,4.44185537218,1.66668621819,7.45361932911
1.08420681881,0.585615414984,0.867257027103,1.29220910204
3.69287043925,1.96937545779,0.68782783602,2.26079887498
-0.548465940308,3.21313550059,1.98839864494,0.079388647915
-1.80980231986,-1.5531044566,1.47896945386,-1.92202157915
-4.45113869942,-3.6593444138,0.179540262774,-2.18343180621
-1.50247507897,0.274415629003,0.610111071694,-5.14484203328
0.956188541473,-2.1518243282,0.970681880612,-4.80625226034
-0.655147838082,1.33193571461,2.22125268953,0.902337512591
1.93351578236,3.51569575741,2.58182349845,5.67092728553
2.29217940281,3.22945580022,0.932394307363,2.20951705846
-0.579156976746,5.27321584302,2.16296511628,2.4881068314
-6.21859011627,-6.66880087209,0.837136627904,-7.88889898257
-9.77381655145,-6.78445459851,0.858862330613,-6.91081715804
-12.2090429866,-10.4701083249,1.04058803332,-9.09273533351
-13.1342694218,-4.18576205136,1.46231373603,-6.63465350898
-9.87949585698,-9.79141577778,-0.235960561255,-8.83657168445
-5.56472229216,-7.79706950421,1.26576514146,-6.67848985992
-7.48994872734,-7.50272323063,0.847490844166,-5.3004080354
-7.36517516251,-8.39837695705,1.55921654688,-4.90232621086
-0.800401597688,-6.66403068348,0.940942249586,-4.10424438634
-4.75562803286,-6.5096844099,0.652667952294,-5.98616256181
-1.66085446804,-7.26533813633,0.734393655004,-6.46808073728
-0.186080903219,-7.37099186275,2.28611935772,-6.78999891275
-1.26130733839,-8.89664558917,1.87784506042,-6.84191708822
-1.26653377357,-5.3822993156,2.10957076314,-0.453835263696
3.64823979125,-1.93795304202,2.24129646585,3.60424656083
7.35301335607,-1.93360676844,2.80302216855,5.68232838536
4.1477869209,-1.72926049487,3.45474787127,9.67041020989
2.17256048572,1.33508577871,3.63647357398,12.9084920344
10.1773340505,0.809432052285,1.91819927669,11.826573859
6.14210761537,0.63377832586,3.2599249794,9.73465568348
9.56688118019,1.09812459944,4.71165068211,5.84273750801
10.381654745,-3.65752912699,3.70337638482,0.110819332534
-2.02357169016,0.126817146589,3.32510208753,0.148901157063
-2.62879812534,3.64116342017,3.84682779024,2.64698298159
0.485975439486,2.03550969374,2.48855349295,4.07506480612
2.99074900431,3.16985596732,1.70027919566,4.91314663065
1.75552256913,6.10420224089,1.59200489837,9.20122845517
4.72029613395,4.22854851447,1.81373060108,7.55931027971
-3.28493030122,4.61289478805,1.77545630379,4.06739210423
-5.9701567364,5.15724106162,2.7171820065,1.75547392876
-4.90538317158,5.1615873352,0.748907709207,0.313555753291
-2.96060960675,6.23593360878,2.23063341192,2.63163757782
-4.30583604193,3.84027988235,3.28235911463,1.46971940235
-2.97106247711,4.07462615593,0.194084817338,2.64780122688
2.20371108772,5.9489724295,-2.32418947995,4.28588305141
6.96848465254,3.27331870308,-3.33246377724,5.60396487594
3.74325821736,3.96766497666,-2.32073807453,6.60204670046
2.30803178218,1.33201125023,-3.88901237182,6.01012852499
4.56280534701,-0.043642476192,-3.68728666911,1.50821034952
6.02757891183,3.67070379738,-3.1255609664,2.06629217405
5.44235247665,5.25505007096,-2.42383526369,1.94437399858
1.74712604148,5.05939634454,-2.51210956098,-0.497544176891
2.7318996063,3.63374261811,-2.87038385827,0.900537647634
4.66667317112,6.78808889169,-1.74865815556,4.64861947216
4.51144673595,4.53243516527,-2.53693245285,5.26670129669
2.49622030077,9.89678143884,-2.24520675014,8.23478312122
1.57099386559,1.72112771242,-3.29348104743,2.70286494575
2.99576743042,-0.334526014005,-3.76175534472,0.310946770278
-0.899459004759,-1.65017974043,-4.98002964201,-0.970971405193
3.23531456006,1.08416653315,-3.6183039393,-2.54288958067
3.39008812488,2.42851280672,-2.56657823659,3.27519224387
4.88486168971,1.0628590803,-1.62485253388,3.74327406839
6.97963525453,5.56720535387,0.11687316883,6.13135589292
8.55440881936,6.64155162745,-0.281401128459,6.31943771745
6.76918238418,6.88589790103,-0.969675425747,6.26751954198
6.473955949,9.3702441746,-0.857949723038,7.22560136651
3.24872951382,8.23459044818,0.303775979672,6.97368319103
0.653503078651,7.83893672176,1.13550168238,6.80176501556
1.40827664347,5.15328299533,-1.75277261491,-0.0401531599055
3.1630502083,6.49762926891,-0.651046912197,-1.61207133538
1.43782377312,4.42197554248,-3.03932120949,-4.88398951085
0.0525973379408,2.16632181606,-4.35759550678,-4.48590768632
2.16737090276,0.650668089636,-4.78586980407,-4.42782586179
1.92214446759,-2.69498563679,-6.18414410136,-7.11974403727
0.0769180324096,-0.280639363211,-5.31241839865,-8.85166221274
-0.438308402769,-2.30629308963,-3.84069269594,-9.07358038821
-6.16353483794,-1.41194681606,-1.44896699322,-9.26549856368
-8.71876127312,-3.52760054248,0.0127587094848,-11.1274167391
-6.1039877083,-1.63325426891,-0.395515587807,-8.00933491462
0.440785856528,-1.55890799533,-0.773789885097,-8.84125309009
1.01555942135,-2.92456172175,-1.41206418239,-6.12317126556
-1.53966701383,-5.69021544818,-2.89033847968,-4.69508944104
-1.364893449,-1.9258691746,-2.21861277697,-3.78700761651
-2.42011988418,-3.53152290103,-4.33688707426,-6.62892579198
-2.64534631935,-7.53717662745,-5.58516137155,-12.3408439674
-8.33057275453,-5.72283035387,-4.67343566884,-12.4127621429
-11.6857991897,-5.6684840803,-3.46170996612,-10.9046803184
-10.2610256249,-6.34413780672,-4.14998426341,-13.0965984939
-8.03625206006,0.840208466854,-0.728258560704,-3.87851666933
-4.15147849524,2.89455474043,0.163467142005,0.679565155195
-2.45670493042,2.87890101401,0.685192844716,-0.49235302028
-0.741931365596,1.83324728758,0.0569185474269,-0.874271195749
-5.70715780077,-5.09240643884,-1.24135574986,-6.76618937122
-2.96238423595,-4.41806016526,-2.28963004715,-6.36810754669
-4.99761067113,-2.36371389169,-1.76790434444,-5.15002572216
-4.8928371063,3.48063238189,0.463821358268,-2.54194389764
-3.77806354148,4.64497865547,1.49554706098,-1.34386207311
-0.723289976653,8.90932492904,1.13727276369,3.57421975142
-0.948516411834,5.65367120262,0.408998466397,3.36230157595
3.69625715299,3.23801747619,0.940724169106,1.23038340048
8.83103071781,9.41236374977,0.232449871817,9.31846522501
6.54580428264,6.01671002335,2.19417557453,8.72654704954
8.13057784746,1.13105629692,2.53590127724,4.74462887406
10.4453514123,4.4654025705,2.26762697995,5.52271069859
9.53012497711,2.69974884407,1.81935268266,3.56079252312
2.48489854193,3.41409511765,1.02107838537,1.94887434765
3.39967210675,4.75844139123,0.932804088079,0.93695617218
5.62444567158,0.672787664802,1.60452979079,0.955037996708
1.6892192364,2.37713393838,2.7662554935,1.81311982124
2.17399280122,8.08148021195,3.03798119621,3.89120164577
2.45876636605,3.90582648553,3.21970689892,2.35928347029
2.18353993087,5.31017275911,3.31143260163,6.46736529482
0.998313495693,1.76451903268,2.57315830434,3.39544711935
2.35308706051,1.09886530626,1.70488400705,0.123528943877
7.49786062534,-2.47678842016,-1.80339029024,0.901610768407
4.42263419016,-1.47244214659,-2.16166458753,3.66969259294
4.39740775498,-3.54809587301,-2.01993888482,1.75777441746
4.35218131981,-2.44374959944,0.391786817891,-0.374143758007
3.13695488463,-4.44940332586,-0.5664874794,-0.246061933478
4.63172844945,-2.14505705228,-0.114761776691,0.352019891048
2.00650201428,-0.650710778707,0.0369639260207,2.13010171558
0.711275579102,-0.176364505131,-0.471310371269,3.93818354011
-2.15395085608,-5.96201823156,-0.42958466856,-0.163734635364
0.120822708748,-2.26767195798,1.00214103415,0.0343471891647
-0.174403726429,-4.2533256844,1.23386673686,-2.32757098631
-5.47963016161,-5.79897941083,1.56559243957,-5.32948916178
-4.81485659678,-2.28463313725,2.21731814228,-2.74140733725
0.20991696804,-9.12028686367,-1.58095615501,-1.72332551272
-0.445309467137,-7.1759405901,-0.389230452298,-3.33524368819
-2.37053590231,0.588405683478,1.42249525041,1.08283813634
-6.10576233749,0.682751957054,1.39422095312,5.25091996086
-10.1309887727,-5.01290176937,2.87594665583,-0.880998214605
-11.7062152078,-4.20855549579,2.38767235854,-4.70291639008
-9.32144164302,-3.53420922222,1.68939806125,-1.89483456555
-5.9466680782,-4.01986294864,2.41112376396,-1.29675274102
-2.89189451337,-5.94551667506,2.48284946667,-0.548670916491
-1.32712094855,-5.69117040149,2.59457516938,3.93941090803
0.0276526162743,-3.85682412791,4.27630087209,8.30749273257
7.28429505815,7.15267805233,3.70905523256,10.0684484012
2.14016984069,4.27320428379,3.03795052417,4.76602204838
-0.883955376758,3.54373051525,3.57684581578,5.18359569561
-3.41808059421,7.16425674671,6.3557411074,3.04116934283
3.54779418834,1.58478297817,4.84463639901,2.31874299006
2.49366897089,1.09530920963,4.64353169062,4.45631663728
-0.270456246562,2.68583544108,5.59242698223,3.18389028451
0.105418535986,1.44636167254,2.69132227385,2.71146393174
0.631293318536,0.646887904004,1.20021756546,0.369037578959
-0.242831898915,-2.83258586454,1.46911285707,-1.36338877381
9.40304288363,5.57794036692,3.61800814869,2.96418487341
3.00891766618,5.39846659838,4.0469034403,5.14175852064
-5.20520755127,2.25899282984,-0.734201268086,-1.73066783214
-4.93933276872,-0.420480938699,-2.73530597647,-2.83309418491
-6.83345798617,-1.10995470724,0.753589315142,-1.21552053769
-7.79758320362,-4.06942847578,-1.00751539325,-3.43794689046
-5.70170842107,-2.43890224432,-1.51862010163,-4.95037324323
-3.16583363853,2.28162398714,-0.929724810019,-0.33279959601
-1.62995885597,2.2021502186,0.949170481594,1.17477405122
0.225915926574,1.18267645006,0.618065773207,1.88234769845
1.15179070912,1.41320268152,-0.17303893518,1.08992134567
-2.29233450833,1.77372891298,0.675856356434,1.92749499289
-3.32645972578,-0.0757448555651,-0.0552483519514,-0.0349313598781
-5.66058494323,-0.545218624105,2.67364693966,-1.53735771265
-8.59471016068,-0.734692392647,3.37254223127,-1.41978406543
-5.42883537813,-0.374166161186,1.95143752289,-0.3822104182
-2.80296059559,0.0163600702726,0.7003328145,-0.834636770975
-3.56708581303,-3.80311369827,-2.65077189389,-3.66706312375
-2.48121103049,-7.26258746681,-3.78187660227,-6.82948947652
-0.745336247935,-4.19206123535,-2.86298131066,-3.2819158293
-5.99946146539,2.58846499611,0.475913980954,-1.97434218207
-9.07358668284,-1.48100877243,-0.925190727434,-4.73676853485
-2.14771190029,0.379517459029,-2.19629543582,-3.38919488762
0.45816288226,2.33004369049,-3.53740014421,-1.0516212404
-1.78596233519,4.46056992195,-2.94850485259,-2.49404759317
-0.520087552643,3.15109615341,-4.52960956098,-0.19647394594
0.275787229908,5.08162238487,-4.48071426937,1.82109970129
1.70166201245,-1.95785138368,-6.87181897775,-1.23132665149
-0.202463204998,-4.96732515221,-5.30292368614,-3.27375300427
-3.94658842245,-5.52679892076,-4.26402839453,-4.37617935704
-6.8607136399,0.163727310703,-1.04513310291,-1.41860570981
-8.98483885735,1.48425354216,-0.656237811299,0.288967937413
-3.6989640748,-1.10522022638,-0.407342519688,-0.253458415358
-1.53308929225,-8.80469399492,-0.938447228074,-3.48588476814
3.3327854903,-5.69416776346,0.0504480635409,-1.70831112091
-5.28133972715,-5.393641532,-1.78065664485,-1.85073747368
-5.02546494461,-4.72311530054,-1.84176135323,-5.10316382646
-5.42959016206,8.78741093092,3.41713393838,4.91440982077
-7.11371537951,-5.36206283762,-1.40397077001,-0.328016532007
-5.37784059696,-14.3115366062,-4.17507547839,-4.94044288478
-1.11196581441,-4.8310103747,-2.78618018678,-2.20286923755
3.26390896814,-9.74048414324,-4.20728489517,0.894704409671
6.75978375069,-6.98995791178,-2.21838960355,8.4822780569
10.3256585332,10.2705683197,3.53050568806,4.19985170412
5.90153331579,-1.29890544887,-2.09059902033,3.20742535135
3.69740809833,-0.418379217406,-3.18170372871,4.64499899858
4.52328288088,-8.36785298595,-7.5428084371,-3.1374273542
6.96915766343,2.69267324551,-3.75391314549,0.510146293025
6.29503244598,9.05319947697,0.364982146126,6.98771994025
6.71090722853,-3.39627429157,-3.05612256226,-1.76470641252
5.00678201108,-7.72574806011,-4.76722727065,-1.7371327653
0.412656793629,-3.04522182865,-0.588331979036,2.28044088193
0.698531576178,7.59530440281,3.08056331258,0.968014529157
2.79440635873,4.45583063427,1.96945860419,-0.894411823618
6.61028114127,16.1663568657,2.5383538958,7.09316182361
7.15615592383,-4.96311690281,1.79724918742,2.10073547083
8.27203070637,0.0874093286475,1.73614447903,0.818309118058
7.58790548892,0.297935560107,1.49503977065,-2.39411723471
8.14378027147,-0.771538208433,1.39393506226,-2.00654358749
5.38965505402,-0.271011976974,1.35283035387,-0.958969940264
3.25552983657,-3.98048574551,-1.54827435451,-4.82139629304
3.50140461912,-10.7399595141,-5.0493790629,-6.59382264581
5.94727940167,-3.3194332826,-2.12048377129,-3.05624899859
5.62315418421,-2.52890705114,-2.18158847967,-2.88867535136
3.58902896677,-5.38838081968,-0.862693188061,-7.72110170413
-1.00509625069,-5.84785458822,-0.0537978964494,-8.56352805691
0.980778531863,3.54267164324,1.49509739517,-2.78595440968
1.66665331441,-0.8768021253,0.113992686778,1.07161923754
0.0925280969605,0.16372410616,1.41288797839,3.93919288477
-2.01159712049,2.89425033762,2.09178327001,2.94676653199
-0.925722337943,8.55477656908,2.21067856162,2.91434017922
4.10015244461,19.7153028005,6.45957385323,5.78191382645
7.06602722715,9.145829032,1.38846914485,2.66948747367
2.02190200971,4.23635526346,-0.612635563542,1.8470611209
1.79777679226,-2.95311850508,3.94625972807,0.724634768125
6.8136515748,-5.99259227362,2.00515501969,10.6622084153
-0.650473642647,-10.2120660422,-5.7659496887,-8.33021793743
3.3854011399,-3.0715398107,-1.59705439709,-0.312644290196
1.16127592245,-0.611013579246,-0.208159105476,1.21492935703
2.407150705,-0.330487347786,-0.359263813863,0.242503004254
4.79302548755,0.900038883672,-0.980368522249,2.18007665148
4.22890027009,-1.07943488487,-0.151473230635,-1.05234970129
0.124775052645,-1.56890865341,-0.0825779390234,0.38522394593
3.2306498352,-0.418382421951,-0.0936826474081,2.54279759316
3.86652461774,10.8421438095,4.0452126442,6.62037124038
8.11239940029,12.302670041,6.32410793582,3.86794488761
13.9182741828,0.133196272429,-0.176996772569,3.96551853483
11.2041489654,8.56372250389,-0.128101480957,4.64309218206
6.61002374794,-10.8757512647,-7.49920618934,-4.68933417071
6.09589853049,-5.79522503319,-3.65031089773,-5.64176052349
-2.24822668697,-12.8146988017,-4.80141560612,-11.3741868763
-1.50235190442,-11.0641725703,-3.5225203145,-11.496613229
-0.296477121865,-7.72364633881,-3.87362502289,-9.08903958181
-2.32060233932,-6.42312010735,-3.00472973128,-6.73146593458
-7.26472755677,-7.7825938759,-2.10583443966,-4.42389228736
0.281147225782,0.407932355563,1.99306085195,-1.27631864014
3.15702200833,7.13845858702,2.26195614356,2.33125500709
1.32289679088,17.7389848185,9.29085143518,11.0188286543
0.818771573428,6.11951104994,5.71974672679,3.96640230154
0.0346463559799,-5.8999627186,1.4986420184,-3.64602405123
-6.16947886147,-0.0294364871406,5.05753731002,-2.608450404
-7.65360407893,1.74108974432,3.31643260163,0.549123243221
0.0722707036221,3.91161597578,2.45532789324,-2.32330310955
-4.60185451382,-1.95785779276,0.734223184858,-5.21572946232
-5.76597973128,3.7226684387,2.39311847647,-2.0481558151
-3.72010494873,4.69319467016,1.37201376808,-0.120582167874
-1.40423016618,-1.20627909838,-0.529090940305,-2.20300852065
-2.32835538363,4.07424713308,1.50980435131,1.22456512658
-5.10248060108,5.06477336453,0.508699642924,3.2021387738
-9.91660581853,-7.64470040401,-4.24240506546,-6.22028757897
-9.21073103598,-15.4441741725,-5.26350977385,-6.14271393175
-8.52485625344,-0.0636479410878,2.96538551776,1.53485971548
-9.17898147089,1.46687829037,2.47428080938,0.292433362705
-8.74310668834,-1.01259547817,1.58317610099,2.32000700993
-7.33723190579,4.04793075329,-0.887928607397,7.46758065716
-3.88135712324,5.48845698475,-0.239033315784,10.6551543044
-1.25548234069,8.01898321621,2.15986197583,11.0427279516
-1.45960755814,8.28950944767,1.06875726744,8.82030159883
8.42840479652,11.2559593023,-0.0633575581414,12.2513335756
6.9488383824,-5.63279596228,-2.48675940762,3.01891099958
7.10927196828,5.55844877312,0.5798387429,9.20648842359
6.76970555416,6.16969350852,0.256436893424,6.01406584759
5.43013914004,8.67093824391,-1.05696495605,5.9916432716
1.67057272593,3.37218297931,1.15963319447,2.43922069561
7.89100631181,11.7834277147,3.45623134499,8.13679811962
5.43143989769,10.5046724501,4.60282949551,8.55437554362
1.87187348357,2.3259171855,-0.640572353966,3.03195296763
6.68230706945,4.1571619209,-0.743974203444,4.81953039164
5.25274065533,9.54840665629,1.67262394708,7.92710781564
1.20317424121,10.3296513917,1.0592220976,7.68468523965
1.6236078271,13.6008961271,2.22582024812,11.7922626637
5.42404141298,2.40214086248,-1.09758160136,3.85984008766
-0.855525001141,-0.126614402123,-1.58098345083,3.69741751167
-0.945091415259,-4.70536966673,-0.584385300313,1.17499493567
2.81534217062,-1.01412493133,1.54221285021,0.0725723596806
9.5157757565,5.31711980407,0.94881100073,4.14014978369
11.3262093424,-6.67163546054,-4.07459084875,2.59772720769
8.88664292827,4.52960927486,1.48200730177,11.1753046317
9.15707651415,4.29085401025,0.818605452296,8.09288205571
2.91751010003,-6.86790125435,-3.39479639718,1.79045947972
-2.67205631409,-1.78665651895,1.15180175334,1.47803690373
-1.01162272821,-5.07541178355,0.0383999038622,-3.28438567227
-2.33118914232,-6.41416704816,-2.79500194561,-1.23680824826
-5.77075555644,-9.16292231276,-4.67840379509,-4.94923082426
