12.08453125,9.96876090118,1.68616279069,4.6608321221
1.86622170276,7.09670979447,1.3023268117,4.23445705915
0.87791215552,0.994658687756,0.838490832717,2.37808199621
1.25960260828,2.05260758104,0.294654853733,3.05170693326
1.04129306103,7.39055647433,2.52081887474,4.16533187032
-3.11701648621,7.93850536762,4.21698289576,4.77895680737
-4.86532603346,1.24645426091,2.59314691677,-2.62741825558
-9.3536355807,-8.8855968458,-0.030689062216,-7.53379331853
-8.93194512794,-2.72764795252,0.875474958793,-5.23016838147
-1.24025467519,7.48030094078,1.16163897981,1.36345655558
4.19143577756,8.09824983407,1.50780300082,3.10708149264
1.06312623031,-1.13380127264,-0.57603297817,1.25070642969
2.24481668308,-3.40585237935,0.150131042847,4.65433136674
-0.263492864164,4.27209651394,2.41629506386,9.1479563038
5.84819758859,9.39004540722,3.28245908487,9.59158124085
7.91988804134,12.7779943005,2.84862310588,12.3452061779
3.8815784941,3.6059431938,3.1047871269,8.20883111496
4.57326894686,1.92389208708,1.76095114791,4.97245605201
-0.59504060039,1.67184098037,0.11711516892,5.68608098906
1.97664985237,3.91978987367,1.85327918993,1.23970592612
-2.23165969488,2.20773876696,-1.85055678905,-1.30666913683
-4.45996924213,-5.08431233976,-2.83439276804,-4.59304419978
-4.54827878936,-11.5063634465,-3.33822874703,-9.99941926272
-5.62658833661,-3.39841455318,-3.37206472601,-5.39579432567
1.19510211614,3.80953434011,-3.245900705,2.09783061139
5.1467925689,3.62748323339,-2.98973668399,0.241455548439
-4.17151697835,-5.07456787331,-3.37357266297,-7.13491951451
0.720173474416,-8.17661898003,-3.38740864196,-4.36129457745
5.06186392717,-1.53867008673,-3.35124462095,0.602330359601
4.25355437992,7.20927880656,-0.525080599939,3.77595529665
4.81524483268,4.72722769984,0.141083421073,1.11958023371
3.55693528543,-5.27482340687,-1.30275255791,-4.37679482924
-3.57137426181,-12.1168745136,-1.6165885369,-11.7131698922
-3.18968380905,-4.61892562029,-2.08042451589,-5.60954495513
-4.0579933563,0.889023272997,-1.52426049488,-0.215920018078
-0.686302903545,1.88697216628,-1.19809647386,-1.89229508102
-5.33461245078,-3.79507894043,-4.45193245285,-2.80867014397
-6.47292199803,-11.2071300471,-3.02576843184,-9.06504520692
-9.40123154527,-8.54918115385,-3.83960441082,-8.44142026986
-4.66954109252,-0.35123226056,-1.93344038981,-4.00779533281
-4.48785063977,-2.64328336727,-1.8072763688,-7.81417039576
-9.646160187,-8.23533447399,-3.71111234779,-8.9905454587
-8.01446973425,-10.2373855807,-3.79494832677,-8.07692052165
-9.60277928149,-11.0494366874,-4.39878430576,-11.2532955846
-5.45108882874,-4.64148779412,-5.97262028475,-9.23967064754
-0.48939837599,-1.32353890083,-4.41645626373,-5.67604571049
-1.84770792323,-5.48559000753,-4.70029224272,-3.58242077343
3.06398252953,-6.87764111425,-2.40412822171,-0.248795836382
-3.12432701771,-3.41969222096,-1.6379642007,-3.17517089933
1.09736343504,3.56825667233,-0.231800179685,-2.05154596227
-5.87094611221,0.116205565617,-0.665636158672,-1.71792102522
-6.29925565945,-5.23584554109,0.350527862342,-1.56429608817
-3.79756520669,-9.72789664781,-1.11330811664,-2.18067115111
2.26412524606,-0.45994775452,3.30285590436,2.55295378594
4.94581569882,13.0280011388,6.64901992538,9.97657872299
5.81750615157,12.2159500321,4.02518394639,13.51020366
5.32919660433,-1.44610107465,0.531347967404,3.2038285971
-0.149112942912,-10.7581521814,-0.0424880115825,-6.58254646585
2.28257750984,-4.39020328808,0.873676009429,-1.01892152879
1.9242679626,3.97774560521,1.23984003044,3.70470340826
6.75595841535,1.5556944985,-0.373995948547,1.66832834531
2.70764886811,-3.65635660821,-2.26783192753,-1.56804671763
0.449339320861,-8.28840771493,-4.44166790652,-2.08442178058
0.291029773616,-5.77045882164,-2.75550388551,-1.81079684353
3.36272022637,2.34749007165,0.480660135505,2.54282809353
8.58441067913,4.08543896495,-1.54317584348,5.56645303058
3.64610113189,-0.856612141768,-0.527011822469,4.05007796764
0.0677915846463,-0.978663248476,0.429152198543,2.93370290469
-3.41051796261,1.10928564481,4.08531621956,1.60732784174
4.12117249015,7.9472345381,5.31148024057,2.8909527788
1.8428629429,9.30518343139,4.80764426158,1.19457771585
-2.23544660433,2.69313232468,5.51380828259,-0.571797347096
-0.663756151574,-4.38891878204,2.4599723036,-4.43817241004
1.18793430118,1.94903011125,3.16613632462,0.975452527011
-2.43037524607,2.60697900454,4.21230034563,-1.11092253594
-3.01868479331,2.35492789783,2.20846436665,-0.117297598883
-1.71699434055,-2.05712320888,1.64462838766,-0.633672661828
-4.8953038878,-5.07917431559,3.62079240867,0.479952275226
-3.28361343504,2.0387745777,5.51695642968,3.63357721228
0.428077017707,9.45672347098,5.21312045069,4.26720214933
1.20976747046,7.70467236427,4.30928447171,1.43082708639
5.79145792322,-2.02737874244,2.73544849272,0.334452023439
-0.71685162402,-7.59942984915,1.61161251373,-0.341923039507
6.61483882873,-1.73148095587,-0.0322234652522,3.06170189755
4.71652928149,4.60646793743,1.34394055576,4.4753268346
4.44821973424,3.32441683072,1.92010457677,1.78895177165
7.799910187,-0.057634275996,0.186268597787,2.17257670871
5.61160063976,-3.1096853827,0.3624326188,3.02620164576
8.52329109251,2.02826351058,4.12859663981,7.06982658281
9.18498154527,8.83621240387,4.36476066082,8.09345151987
6.48667199802,2.65416129716,1.58092468184,2.64707645692
3.88836245078,-0.987889809549,1.92708870285,2.36070139397
3.47005290354,-3.31994091626,2.99325272386,-0.185673668972
-0.468256643711,0.738007977023,3.60941674488,-1.44204873192
3.98343380904,6.11595687032,1.81558076589,1.42157620514
2.3951242618,6.7739057636,-0.338255213101,3.97520114219
-0.44318528544,-1.56814534311,0.547908807912,1.62882607924
-1.18149483269,-9.33019644982,0.734072828927,-2.7075489837
8.67019562007,-4.84224755653,-0.0297631500653,-1.94392404665
6.73188607283,5.31570133675,1.63640087095,3.7997008904
4.76357652558,2.69365023005,0.332564891964,4.73332582746
2.05526697834,-3.95840087667,-2.25127108702,0.46695076451
-0.943042568906,-6.58045198338,-1.34510706601,-1.89942429844
0.178647883848,1.10749690991,2.331056955,3.02420063862
-2.92966166339,6.48544580321,1.76722097602,2.57782557567
-2.45797121064,8.04339469649,0.913384997028,3.56145051273
0.333719242117,-0.928656410222,-2.36045098196,1.74507544978
-8.69459030513,-7.04070751694,-2.15428696095,-0.211299613167
-4.11289985237,3.58724137636,2.87187706006,2.44232532389
1.87879060038,4.47519026964,-1.25195891892,1.01595026094
-3.12951894686,-1.31686083707,-3.91579489791,-2.58042480201
-6.3278284941,-10.0889119438,-4.9796308769,-6.66679986495
-9.78613804135,-13.8809630505,-5.32346685588,-7.5831749279
-5.6144475886,-7.46301415721,-4.21730283487,-6.08954999085
0.51724286416,-0.525065263915,-4.69113881386,-4.65592505379
-0.781066683077,3.11288362937,-5.28497479285,-0.47230011674
-4.30937623033,-5.20916747734,-7.01881077183,-2.23867517969
1.67231422243,-10.591218584,-4.09264675082,-5.63505024263
7.22400467518,4.35673030924,-0.196482729811,2.83857469442
7.03569512794,11.1246792025,0.779681291206,5.12219963147
1.0973855807,11.8526280958,1.41584531222,2.90582456853
-4.04092396655,4.3805769891,1.19200933323,0.429449505582
-5.67923351379,0.368525882397,2.27817335424,-0.466925557364
-4.51754306104,5.43647477568,2.44433737526,-0.91330062031
1.65414739172,12.694423669,3.40050139627,2.73032431674
-2.79416215552,7.70237256226,0.0966654172807,2.0439492538
-5.99247170277,-3.18967854445,-3.28717056171,-2.74242580915
-9.54078125001,-10.8617296512,-4.52100654069,-9.7588008721
1.80862281979,-1.15695857556,-1.69873183139,0.26853561047
5.2539594683,6.9819994335,0.275647803741,6.21374690991
3.6992961168,2.49095744255,-2.46997256112,-0.851041790647
1.22463276531,-8.69008454838,-6.39559292598,-7.25583049121
-11.3600305862,-17.7211265393,-4.74121329084,-12.1306191918
-3.15469393768,-12.5221685302,-3.3868336557,-11.7254078923
3.47064271083,-1.88321052118,-2.33245402056,-2.91019659288
1.26597935933,0.755747487878,-2.03807438541,2.32501470656
3.30131600785,-0.675294503053,0.256305249724,3.510226006
3.17665265635,-4.23633649399,0.750684884864,1.59543730544
7.83198930485,-3.89737848493,0.425064520005,1.39064860489
11.0073259534,5.20157952414,1.25944415514,8.59585990433
9.11266260187,5.4405375332,1.13382379029,10.2910712038
5.55799925038,-2.47050445773,-0.491796574574,3.88628250321
5.85333589889,-8.60154644868,-2.96741693943,-1.87850619735
5.83867254739,-4.64258843961,-1.64303730429,-1.89329489791
5.8640091959,3.79636956946,-1.00865766915,1.50191640153
0.529345844407,0.675327578523,-1.07427803402,-0.432872299025
7.32468249292,-5.05571441242,0.920101601125,-0.527660999584
0.510019141424,-7.71675640335,0.394481236264,-5.77244970014
1.57535578994,-0.317798394288,0.888860871404,1.0927615993
8.06069243844,7.46115961478,3.35324050655,4.22797289874
7.14602908694,5.87011762384,3.76762014169,5.07318419818
1.54136573546,0.549075632902,1.76199977683,3.60839549762
0.716702383957,-3.65196635803,1.09637941197,-1.41639320294
4.52203903248,0.146991651032,-1.32924095289,0.418818096507
5.68737568098,6.06594966009,-1.72486131775,4.66402939595
6.79271232948,3.13490766916,0.939518317387,2.38924069539
3.32804897799,-0.826134321775,0.583897952529,0.69445199483
-1.1566143735,-3.07717631271,0.97827758767,-1.47033670573
-3.12127772499,1.39178169635,0.552657222808,-0.845125406287
4.08405892352,8.40073970542,-1.27296314205,0.570085893154
-3.18060442798,6.58969771448,1.71141649309,-0.144702807405
2.52473222053,1.33865572355,1.15579612823,0.130508492037
0.070068869034,-5.92238626739,0.000175763369043,-0.934280208521
-3.72459448245,-1.54342825833,-2.35544460149,-1.13906890908
-0.609257833952,5.04552975074,-2.93106496635,0.0961423903627
-4.45392118545,4.2144877598,1.29331466879,1.4413536898
-10.6385845369,-2.33655423113,1.50769430393,-1.73343501076
-10.3632478884,-8.95759622207,-0.0279260609313,-6.03822371131
-9.17791123992,1.35136178699,2.09645357421,-0.533012411872
-1.50257459142,11.2503197961,1.84083320935,4.78219888757
-0.177237942909,12.8792778051,3.38521284449,7.46741018701
1.3880987056,0.828235814181,2.11959247963,0.302621486451
-1.8665646459,-3.28280617675,0.513972114768,-2.15216721411
-7.11122799738,3.86615183231,-0.14164825009,2.43304408533
-2.39589134888,5.92510984138,0.462731385051,0.378255384776
-5.86055470038,2.52406785044,4.26711102019,-4.11653331578
-7.12521805186,-7.0869741405,0.191490655332,-7.46132201634
-8.72988140336,-8.16801613143,-0.854129709529,-7.9961107169
-3.85454475485,-2.19905812237,-0.519750074389,-3.79089941746
-1.20920810635,5.6898998867,0.16462956075,-0.525688118016
-4.17387145783,6.10885789576,0.67900919589,-2.26047681858
-3.16853480932,-0.23218409517,-1.90661116897,-1.96526551913
-8.10319816082,-5.85322608611,-1.92223153383,-4.87005421969
-8.87786151231,-4.55426807704,-0.0578518986877,-6.07484292025
-7.5325248638,2.03468993201,1.78652773645,-2.42963162081
-5.3871882153,6.39364794108,1.01090737159,-0.924420321369
-9.76185156679,-1.91739404985,1.88528700673,-0.429209021928
-10.5165149183,-8.82843604079,3.78966664187,-5.07399772249
-9.39117826978,-1.85947803173,1.11404627701,-6.88878642305
-11.3058416213,4.88947997734,1.18842591215,-1.6935751236
-6.19050497276,4.12843798641,-0.65719445271,-2.44836382416
-2.71516832426,-3.20260400453,-0.402814817568,-4.21315252472
-8.40983167575,-5.08364599547,1.28156481757,-1.79794122528
-7.71449502724,0.0753120135923,2.04594445271,-0.182729925837
-9.80915837873,7.18427002266,3.15032408786,0.932481373606
-11.1238217302,3.74322803173,3.33470372299,-2.43230732695
-9.77848508172,1.01218604079,0.259083358134,-1.06709602751
-6.29314843321,-3.09885595015,-0.386537006725,-0.261884728072
-2.9478117847,-2.60989794108,1.18784262841,-0.0566734286294
-1.7424751362,1.85906006798,-0.217777736445,1.30853787081
-3.74713848768,6.74801807704,-0.883398101309,2.54374917025
1.05819816082,-4.5830239139,-2.43901846617,-3.08103953031
-1.19646519067,-9.79406590483,-2.14463883103,-3.84582823087
-1.25112854216,-1.96510789576,0.879740804114,-0.190616931424
2.52420810634,10.0738501133,2.52412043926,4.05459436802
6.26954475485,8.13280812236,-0.331499925604,5.12980566746
2.33488140335,-4.60823386857,-1.39712029046,0.865016966902
1.49021805185,-8.7492758595,-2.22274065532,-1.00977173366
2.01555470037,0.0596821495565,-1.94836102019,3.10543956578
8.07089134887,7.87864015862,-0.753981385045,5.93065086523
8.32622799739,9.10759816768,1.4703982501,5.70586216467
7.34156464589,0.496556176753,0.914777885235,3.61107346411
6.5269012944,-2.43448581419,0.879157520376,4.57628476355
9.4122379429,3.64447219487,1.06353715552,6.72149606299
13.9775745914,11.7334302039,0.557916790654,9.13670736243
6.58291123992,11.152388213,0.342296425795,7.91191866187
5.28824788843,3.19134622207,-0.843323939065,3.71712996131
6.79358453694,0.670304231135,0.101055696075,2.76234126076
5.76892118544,-0.1007377598,-1.69456466878,1.9375525602
-0.465742166052,2.27822024926,-2.18018503365,-0.447236140359
2.28959448246,0.487178258321,-3.8758053985,-1.61202484092
1.40493113096,-1.12386373261,0.288574236638,2.68318645852
0.580267779471,-8.44490572355,0.472953871777,-0.241602242035
1.09560442798,-3.90594771448,0.187333506918,1.93360905741
4.73094107648,1.39301029458,0.691713142056,2.02882035685
5.08627772499,4.45196830364,-0.663907222803,1.80403165629
10.3916143735,3.91092631271,0.410472412339,5.26924295573
-1.70304897799,-3.35011567822,0.504852047477,2.16445425517
-7.45771232949,-0.691157669156,-0.13076831738,0.809665554612
-2.07237568098,4.1078003399,1.21361131776,1.86487685405
-2.01703903247,7.28675834896,1.4679909529,1.69008815349
-3.26170238396,-0.604283641966,-0.78762941196,0.905299452936
-7.55636573546,-6.7853256329,-2.65324977682,-1.07948924762
-4.35102908695,2.02363237616,0.391129858319,2.41572205182
1.08430756156,7.14259038522,0.665509493461,3.20093335126
-0.320355789932,3.96154839429,3.6198891286,-0.733855349297
0.494980858573,-0.709493596645,3.74426876374,-2.11864404985
-3.34968249292,-2.20053558759,2.44864839888,0.856567249586
-1.08434584441,3.33842242148,1.99302803402,4.91177854903
5.80099080409,5.59738043055,0.637407669161,0.376989848468
7.1663274526,6.07633843961,-0.2282126957,-1.04779885209
3.2916641011,0.785296448666,1.27616693944,0.91741244735
-1.04299925039,-5.25574554226,-0.39945342542,0.832623746792
1.37233739812,-1.9667875332,1.30492620972,1.01783504623
7.67767404663,2.41217047587,3.05930584486,2.78304634567
9.83301069514,5.22112848493,2.61368548,8.37825764512
3.93834734364,0.150086493988,0.408065115142,8.11346894456
0.743683992157,-5.75095549694,-0.717555249717,1.188680244
2.86902064066,-2.80199748788,-2.30317561458,-0.956108456558
6.07435728917,-2.94303947882,-5.37879597944,-1.53089715712
6.00969393767,-5.68408146976,-3.6744163443,-5.17568585768
-1.67496941382,-14.0251234607,-3.76003670916,-11.6504745582
-3.87963276531,-21.4561654516,-6.76565707402,-17.7552632588
-5.42429611681,-7.48720744257,-2.82127743888,-6.50005195935
-3.71895946829,2.5017505665,-0.156897803739,-5.56484065991
-4.49362281979,-2.00929142443,-0.782518168598,-10.1596293605
7.31881177327,-5.45193677324,0.196388081389,-3.67018895349
7.57223599732,-11.4173184284,-0.489104988788,-3.05449084989
9.90566022136,-4.39270008353,-0.37459805897,-0.338792746288
8.3690844454,3.83191826132,1.42990887085,5.88690535731
10.7225086694,1.84653660618,1.05441580067,4.80260346091
3.68593289349,-10.088845049,-2.83107726951,-1.78169843549
2.75935711753,-9.17422670411,-2.94657033969,-2.1360003319
6.54278134157,-5.05960835926,1.88793659013,-2.0603022283
7.55620556561,-1.07499001441,2.82244351995,-3.0346041247
1.11962978966,-0.760371669559,1.82695044978,-1.8889060211
-5.0669459863,-6.2857533247,0.971457379594,-2.2132079175
-8.23352176226,-13.8811349798,0.815964309415,-7.3675098139
-4.94009753821,-7.55651663499,1.74047123923,-5.88181171031
-3.47667331417,0.768101709858,1.18497816906,-2.33611360671
-3.47324909013,-1.60727994528,-0.580514901121,-2.11041550311
-2.77982486608,-8.44266160043,-1.1860079713,-3.57471739951
-5.40640064204,-10.8580432556,-1.09150104148,-4.69901929591
-3.882976418,-5.84342491072,-1.96699411166,-8.49332119231
-8.92955219395,-1.18880656586,-1.45248718184,-5.32762308872
-11.8661279699,-2.17418822101,-2.29798025202,-5.37192498512
-12.2227037459,-10.9095698762,-2.7634733222,-9.00622688152
-9.88927952183,-11.4749515313,-1.73896639238,-5.04052877792
-3.51585529778,-4.83033318644,-2.15445946256,-2.94483067433
-4.87243107374,2.36428515841,-1.59995253274,-3.11913257073
-6.5590068497,4.57890350326,-1.52544560292,-1.16343446713
-9.23558262565,-3.08647815188,-1.4609386731,-3.34773636353
-4.14215840161,-8.11185980703,-0.896431743273,-3.20203825993
-5.86873417757,1.86275853783,0.888075186544,0.623659843668
-3.98530995352,5.16737688268,0.332582116367,1.08935794726
-0.051885729481,4.48199522754,-1.61291095381,3.03505605086
-0.448461505439,-3.23338642762,-3.66840402399,-3.09924584554
-5.9150372814,-5.65876808276,-2.74389709417,-6.48354774194
-3.90161305735,-0.524149737903,-0.559390164351,-0.0178496383433
-1.40818883331,4.33046860695,1.10511676547,1.46784846526
4.83523539073,6.8550869518,-0.130376304711,1.11354656885
3.62865961478,1.91970529666,-0.865869374888,2.91924467245
-5.20791616118,-1.27567635849,-0.0313624450682,1.38494277605
2.30550806286,-2.57105801363,-1.66685551525,-4.72935912035
5.72893228691,6.41356033122,-0.272348585426,0.056338983246
-4.11764348905,2.68817867608,-0.927841655604,-0.717962913155
-2.43421926501,2.08279702093,0.196665274212,0.907735190443
-5.85079504097,-0.172584634216,1.85117220403,-0.896566705958
4.17262918308,6.08203371063,0.265679133856,1.76913139764
2.34605340713,11.4966520555,0.800186063676,5.29482950124
-1.70052236884,7.27127040035,1.6746929935,2.95052760484
-2.09709814479,2.1158887452,-0.000800076682935,-0.103774291565
-0.923673920755,3.30050709005,0.853706853137,2.70192381203
-2.79024969671,4.75512543491,2.59821378296,1.23762191563
-4.59682547266,10.0797437798,-0.887279287217,3.10332001923
-3.74340124862,8.42436212462,-0.532772357401,2.86901812283
-5.47997702457,1.49898046948,0.121734572422,-1.55528377357
-1.36655280053,-0.606401185672,-1.48375849776,-1.06958566998
-1.49312857649,1.18821715919,-3.11925156794,-1.28388756638
-2.61970435244,7.31283550404,-0.524744638118,0.40181053722
0.353719871593,10.7374538489,0.279762291702,4.65750864082
3.04714409564,8.07207219375,0.374269221524,7.86320674442
0.430568319687,3.6766905386,0.328776151346,6.88890484801
4.64399254372,7.97130888345,2.81328308117,7.72460295161
5.69741676777,12.8359272283,1.65779001098,5.27030105521
4.0508409918,6.99054557316,-1.58770305919,1.45599915881
0.614265215852,-2.19483608198,-2.07319612937,-2.14830273759
-3.7123105601,-5.39021773713,-1.73868919955,-1.42260463399
2.46111366394,3.01440060773,-1.82418226973,2.7130934696
2.58453788798,9.38901895258,2.60032466009,4.1987915732
3.49796211202,9.00363729744,2.08483158991,4.9744896768
9.46138633606,3.86825564229,-0.390661480269,1.5201877804
5.17481056011,-0.0171260128554,0.463845449551,0.925885883997
7.63823478415,2.887492332,2.15835237937,2.47158398759
2.6816590082,11.8121106769,1.38285930919,1.80728209119
0.715083232237,6.48672902171,2.49736623901,-0.777019805209
-3.23149254372,3.59134736656,1.40187316883,2.11867829839
-1.54806831967,-1.86403428858,1.44638009865,0.764376401987
-1.74464409563,7.12058405627,1.97088702847,5.80007450559
0.808780128413,13.3852024011,3.1953939583,9.50577260918
1.57220435245,5.19982074598,3.12990088812,2.29147071278
9.7456285765,0.224439090838,3.02440781793,10.5971688164
2.30905280054,1.51905743569,6.03891474776,13.42286692
5.44247702458,5.18367578055,3.45342167758,9.24856502358
7.27590124863,6.90829412539,-0.262071392601,4.11426312717
10.3693254727,5.83291247026,2.69243553722,8.07996123077
2.46274969672,-2.7924691849,-0.753057532958,1.22565933437
4.95617392076,-1.01785084003,0.861449396863,3.74135743797
9.8995981448,2.86676750481,0.905956326682,10.7070555416
12.8130223688,9.98138584967,1.9804632565,13.8827536452
4.90644659289,9.97600419453,1.38497018632,10.2484517488
4.14987081692,1.49062253938,-0.430522883857,5.74414985236
5.43329504097,-2.86475911577,0.663984045965,3.71984795596
0.386719265014,-3.78014077091,0.398490975786,0.0455460595585
0.840143489055,1.00447757394,0.0929979056054,-0.0587558368443
9.38356771311,3.9090959188,0.607504835425,2.11694226675
3.80699193714,-2.85628573635,0.11201176525,1.52264037035
-3.00958383882,-5.1216673915,1.54651869507,-1.98166152605
4.88384038523,0.692950953358,1.86102562489,2.54403657755
3.79726460927,5.63756929822,0.995532554709,1.88973468115
-1.95931116668,3.80218764306,0.0600394845314,-0.314567215255
-4.92588694264,-2.52319401208,-0.145453585646,-0.978869111656
-5.5024627186,-7.38857566722,0.769053344171,-4.88317100806
6.93096150544,-4.14395732237,-0.456439726007,-2.00747290446
3.38438572949,-3.60933897751,-2.89193279619,-2.58177480086
2.08780995353,-0.614720632657,0.222574133633,-1.41607669726
2.99123417757,-6.96010228781,-0.00291893654503,-4.35037859367
-2.96534159838,-11.4254839429,0.761587993275,-6.62468049007
-5.69191737434,-0.88086559809,2.72609492309,-4.28898238647
-2.5084931503,2.30375274676,-0.649398147085,-2.02328428287
2.99493107375,0.248371091613,-2.20489121726,0.112413820729
0.248355297786,-3.90701056353,-0.930384287443,0.788111924325
-2.59822047817,-4.91239221868,-1.84587735762,1.73381002792
3.99520374587,1.21222612618,0.968629572199,3.26950813152
1.85862796992,5.19684447103,4.72313650202,1.28520623512
3.14205219397,4.66146281589,2.78764343184,4.11090433872
9.80547641801,-4.88391883926,-1.03784963834,-3.65339755768
-1.59109935795,-6.84930049441,-3.36334270852,-2.39769945408
2.0423248661,2.20531785045,1.4011642213,1.85799864951
4.95574909014,10.1199361953,0.37567115112,7.63369675311
5.82917331418,2.00455454016,-3.43982191906,3.10939485671
4.65259753822,-6.84082711499,-4.67531498924,-4.01490703969
1.66602176226,-11.4862087701,-3.15080805941,-8.73920893609
-1.32055401369,-5.77159042528,-0.216301129592,-6.1635108325
-4.10712978966,-0.686972080424,-1.72179419977,-4.8578127289
-6.72370556561,-1.69235373557,-0.347287269953,-5.3421146253
-10.9602813416,-7.21773539072,-0.412780340132,-7.4764165217
-8.49685711752,-9.02311704586,-2.04827341031,-7.0607184181
-5.44343289348,0.301501298993,-2.31376648049,-3.07502031451
-4.39000866944,0.436119643848,-1.32925955067,-5.65932221091
-10.7365844454,-6.3592620113,-1.61475262085,-8.22362410731
-12.9631602214,-13.0646436664,-3.16024569103,-10.6479260037
-16.8497359973,-12.9300253216,-1.30573876121,-10.1922279001
-5.97631177327,-7.69540697673,0.88876816861,-6.83652979651
9.21161700582,11.0266497093,1.80478924418,4.60721656977
-0.0930036852151,4.80259321783,-1.60636270258,-3.19767808093
5.30237562375,-2.24146327365,-1.19751464934,-5.12257273164
4.15775493271,-6.00551976514,0.121333403906,-5.29746738234
5.73313424168,3.77042374338,-0.829818542854,-0.0323620330491
5.65851355064,11.7963672519,-2.21097048961,1.73274331625
7.08389285961,6.35231076041,-2.74212243637,1.84784866554
11.5292721686,-0.331745731077,-0.323274383132,-1.01704598516
8.34465147753,-1.71580222256,0.445573670113,1.01805936413
8.3600307865,4.91014128595,2.72442172335,3.12316471343
6.80541009545,12.7160847945,2.89326977659,4.36827006272
11.1807894044,8.43202830298,-1.81788217017,6.29337541202
6.52616871338,-0.552028188504,0.0409658830758,4.18848076131
3.14154802234,-0.276084679994,3.15981393632,3.72358611061
3.46692733131,3.36985882853,1.12866198956,3.2286914599
5.00230664027,3.33580233704,0.997510042802,-0.196203190804
0.417685949236,1.33174584556,0.266358096043,-4.37109784151
-8.5069347418,-4.95231064593,-2.88479385072,-5.93599249221
-6.84155543284,-7.20636713742,-2.40594579748,-3.61088714292
-5.91617612387,1.0995763711,0.282902255763,0.474218206376
-2.97079681491,9.41551987961,3.44175030901,3.41932355567
0.684582494054,6.20146338813,2.84059836225,-0.825571095034
-5.42003819699,0.127406896645,0.459446415487,-1.40046574574
-8.60465888802,-2.97664959484,1.82829446873,-1.02536039644
-4.27927957906,2.92929391366,1.13714252197,-0.420255047149
-1.66390027009,5.62523742219,1.50599057521,0.914850302146
-2.96852096113,5.1311809307,-1.05516137155,-3.64004434856
-14.3931416522,-5.88287556078,-2.0863133183,-9.03493899926
-9.6677623432,-9.49693205227,1.05253473494,-4.42983364997
-3.68238303424,-2.87098854376,0.361382788178,-1.16472830068
-4.29700372527,2.54495496476,0.770230841419,-0.629622951381
-3.59162441632,3.19089847328,2.16907889466,1.67548239792
-3.43624510735,-4.49315801822,0.317926947901,-1.72941225279
-13.5008657984,-9.7372145097,-1.31322499886,-4.9643069035
-9.60548648942,-5.15127100118,0.125623054384,-5.9292015542
-7.51010718045,3.23467250733,2.68447110763,-1.6140962049
-5.2147278715,0.760616015847,1.21331916087,-1.07899085561
-2.89934856253,-6.27344047564,-2.69783278589,-5.62388550631
-9.00396925357,-9.59749696712,-0.698984732651,-5.59878015702
-2.43858994461,-1.57155345861,1.51986332059,1.30632519228
-0.213210635637,4.4743900499,0.408711373831,4.41143054157
3.24216867332,4.39033355842,-2.56244057293,2.42653589087
-4.56245201772,-3.83372293306,-0.963592519685,1.15164124016
-2.96707270875,-4.65777942455,2.07525553356,2.66674658946
-3.20169339979,1.56816408396,1.3041035868,3.92185193875
-1.27631409083,2.84410759248,-2.28704835996,3.84695728804
8.27906521814,2.360051101,-1.43820030672,8.86206263734
12.7644445271,-2.88400539049,2.19064774652,10.3271679866
-3.58017616394,-3.77806188197,-0.930504200238,6.95227333593
-2.07479685497,1.32788162654,0.0383438530007,8.22737868522
-2.92941754601,6.27382513506,0.487191906246,9.34248403452
5.13596176296,-1.15023135643,-0.573960040514,4.20758938381
4.77134107192,-8.25428784791,-1.33511198727,-0.957305266891
7.30672038088,-5.5383443394,-0.986263934032,1.7178000824
2.11209968985,-6.07240083089,-1.36741588079,-3.1970945683
5.41747899881,1.13354267763,-3.41856782755,-2.08198921901
0.382858307777,-2.53051381386,-1.86971977431,0.913116130288
-2.69176238326,-10.4545703053,-1.21087172106,-1.97177852042
-7.0963830743,-10.0086267968,-3.40202366783,-2.70667317112
1.55899623466,-4.90268328832,-0.803175614587,-1.99156782183
-0.365624456375,-4.3367397798,-0.654327561344,-5.03646247253
1.56975485259,1.63920372872,0.774520491897,1.30864287676
2.74513416155,-2.85485276277,-0.286631454859,1.93374822606
4.48051347052,-3.26890925426,-0.237783401619,2.82885357535
2.48589277948,0.57703425426,0.171064651622,5.51395892465
5.36127208844,3.91297776277,1.30991270486,3.76906427394
4.10665139741,1.45892127129,-1.0712392419,1.84416962324
-2.09796929363,-10.3551352202,-0.992391188654,-1.62072502747
-11.8425899847,-7.04919171168,1.66645686459,-3.18561967817
-8.68721067571,-3.64324820317,-0.694695082169,-3.25051432888
-4.01183136674,1.39269530535,1.65415297107,-0.795408979582
-7.13645205778,-4.50136118614,-0.81699897569,-3.43030363029
-4.66107274882,-9.86541767762,-1.99815092245,-2.71519828099
-7.59569343984,-9.51947416911,-1.67930286921,-3.9000929317
-9.26031413089,-1.83353066059,1.69954518404,-0.374987582403
0.195065178079,6.47241284792,1.99839323727,3.38011776689
0.360444487043,3.69835635644,0.377241290516,1.39522311619
-2.75417620399,-6.23570013505,-1.65391065624,-5.82967153452
-3.73879689504,-8.53975662654,-2.635062603,-5.18456618522
2.23658241393,-2.94381311802,-0.436214549758,-5.13946083593
5.0919617229,3.0721303905,1.40263350348,-0.804355486634
1.19734103186,8.26807389901,0.22148155672,4.02074986266
-6.09727965917,-5.20598259247,-1.57967039003,-4.91414478804
-6.55190035022,-6.14003908396,-2.67082233679,-7.23903943875
-4.05652104125,-1.08409557544,-3.56197428355,-4.67393408945
1.16885826771,6.30184793306,0.916873769689,-3.01882874016
-2.43576242332,3.95779144159,1.48572182293,-1.90372339086
1.68961688564,-4.8662650499,-0.385430123828,-4.76861804157
5.0549961946,-6.60032154139,-1.60658207059,-3.40351269227
6.25037550357,-0.924378032876,-1.33773401735,-1.87840734298
8.86575481253,7.75156547564,-0.128885964106,4.14669800632
7.60113412149,7.55750898416,-1.41003791086,3.70180335561
1.26651343046,-3.56654750733,-0.511189857622,-3.49309129509
6.42189273942,-1.10060399881,1.83765819562,-1.5679859458
5.43727204839,2.9553395097,1.01650624886,-0.882880596504
3.44265135735,8.36128301822,1.3853543021,2.69222475279
2.59803066631,6.98722652673,2.81420235534,2.11733010209
4.42340997527,-1.56682996476,2.24305040858,1.15243545138
6.91878928424,-0.850886456239,3.68189846182,4.72754080068
8.0541685932,5.88505705228,5.14074651507,8.34264614997
8.71954790216,12.0810005608,4.02959456831,8.70775149927
2.27492721113,5.8969440693,1.72844262155,2.98285684856
-3.65969347991,-2.14711242218,1.35729067479,0.0779621978545
0.335685829057,-4.55116891367,0.446138728032,0.18306754715
-3.93893486199,0.524774594844,1.72498678127,0.208172896444
-3.12355555302,4.06071810336,1.97383483451,1.50327824574
0.711823755948,1.58666161188,-0.0273171122426,-1.87161640497
3.23720306491,-3.14739487961,-1.02846905901,1.30348894433
-3.38741762612,-3.6314513711,-2.60962100576,-1.09140570637
-2.88203831717,-1.66550786258,-1.58077295252,-2.36630035708
0.323340991803,3.88043564594,-2.57192489928,-0.181195007786
-0.211279699244,-0.29362084555,-4.18307684604,-2.50608965849
-1.53590039028,-6.38767733704,-0.574228792797,-5.4309843092
0.149478918691,-5.26173382852,0.324619260442,-5.4558789599
-3.99514177235,-2.03579032,0.283467313686,-5.34077361061
1.16023753662,4.72015318851,0.382315366925,-1.67566826131
3.00561684558,3.13609669702,0.591163420169,2.80943708798
-3.85900384546,-2.66795979446,0.48001147341,0.954542437279
-5.7236245365,-3.36201628594,-0.651140473346,-1.93035221343
0.331754772466,2.03392722257,0.0277075798913,0.194753135869
-1.94286591857,11.5398707311,1.97655563313,6.08985848516
-4.02748660961,7.6058142396,0.105403686375,7.03496383446
-2.13210730064,-1.50824225189,-0.785748260387,1.74006918375
3.56327200832,-1.99229874337,-0.576900207143,-2.37482546695
6.00865131729,3.51364476515,-0.528052153903,0.570279882344
-1.30596937375,11.1895882737,-1.07920410066,4.72538523164
2.99940993521,4.95553178217,-1.59035604742,0.140490580934
4.69478924418,-2.54852470932,2.12849200582,-2.96440406977
5.91731468023,-4.8486155523,0.726653343019,-0.476137354648
11.4759347247,1.07518523396,2.5279991073,9.02218026117
9.39455476905,7.48898602022,3.34934487159,8.650497877
11.6531748135,6.79278680647,3.29069063587,5.70881549282
4.94179485786,-0.953412407267,1.34203640015,-1.10286689136
-1.96958509773,-5.70961162102,-2.59661783556,-4.20454927554
1.18903494667,0.0241891652404,-1.84527207128,-2.00623165972
4.39765499107,3.5079899515,-3.513926307,0.412085956101
2.71627503548,1.14179073775,0.297419457285,0.420403571923
-5.43510492011,-7.96440847599,0.808765221569,-4.15127881226
2.35351512429,-9.44060768973,-1.65988901415,-5.62296119644
-3.6378648313,-3.09680690348,0.501456750135,-4.14464358061
-3.94924478689,0.426993882786,1.85280251442,-2.88632596479
-2.92062474249,1.25079466904,1.5341482787,-3.58800834897
-4.07200469808,-3.37540454471,0.475494042981,-3.93969073315
-4.25338465368,-5.97160375844,1.11683980727,-4.05137311733
0.155235390732,1.84219702781,-0.35181442845,-2.59305550151
1.60385543514,6.42599781406,1.49953133583,0.0752621143129
-3.91752452046,4.06979860033,1.78087710011,0.153579730133
-4.90890447605,0.13359938658,0.992222864399,1.79189734596
-3.70028443165,-0.452599827164,1.15356862868,1.91021496178
2.46833561276,7.14120095909,2.31491439297,4.5285325776
-2.65304434283,11.7450017454,1.67626015725,4.64685019342
-0.564424298434,4.49880253161,-2.37239407847,0.475167809242
-3.32580425403,-4.37739668213,-0.571048314185,-2.89651457494
-4.49718420962,-4.16359589588,1.4302974501,-2.16819695912
-4.60856416522,-1.80979510962,-0.148356785619,-5.9698793433
-4.03994412081,4.17400567664,-0.177011021337,-0.211561727476
-0.321324076402,4.52780646289,2.20433474295,3.27675588835
-2.582704032,-0.798392750847,1.66568050723,-0.644926495834
0.245916012413,-6.18459196459,1.22702627151,-3.63660888001
-4.68546394318,0.909208821664,3.0483720358,-1.52829126419
-2.07684389878,6.56300960793,3.88971780008,0.42002635163
-7.53822385438,2.13681039418,-0.118936435636,0.178343967453
-6.46960380996,-2.06938881957,0.682409328649,-0.633338416725
-5.80098376556,-2.09558803331,4.18375509293,-1.5750208009
-2.20236372116,0.688212752946,2.38510085722,0.273296814916
-0.103743676751,-0.357986460796,-0.333553378503,-1.50838556926
-4.17512363235,-1.10418567454,0.577792385782,-4.46006795344
-6.03650358794,-5.28038488828,-0.390861849937,-7.33175033762
-8.01788354354,-10.606584102,-0.709516085655,-5.4534327218
-5.00926349913,-11.8627833158,-2.99817032137,-8.41511510598
-7.33064345473,-4.06898252951,-2.00682455709,-7.60679749016
-1.77202341032,-2.10518174325,-1.09547879281,-6.58847987434
-4.03340336591,-10.381380957,-0.104133028522,-11.2301622585
-10.0647833215,-14.2975801707,-1.60278726424,-13.6018446427
-7.0761632771,-8.33377938448,0.0585585000445,-8.94352702687
1.4624567673,-1.62997859823,0.449904264329,-3.88520941105
3.29107681171,-3.64617781197,-0.138749971389,-2.35689179523
-13.0303031439,-10.4823770257,-3.2474042071,-12.0985741794
-17.0316830995,-10.2485762395,-6.49605844282,-11.7802565636
-0.603063055074,-3.3647754532,-1.47471267854,-2.49193894777
-1.08444301067,-3.01097466694,-3.70336691425,-9.01362133194
-3.07582296626,0.892826119314,-7.31202114997,-6.90530371612
2.94279707814,-3.98337309443,-3.72067538569,-4.0869861003
-3.52858287745,-3.48957230817,0.430670378595,-2.57866848448
-2.91996283305,4.34422847808,0.492016142878,1.35964913134
2.03865721136,8.21802926435,-0.946638092839,2.77796674716
4.49727725577,10.6218300506,-0.425292328557,8.74628436298
-2.19410269983,2.21563083685,-2.73394656427,4.0146019788
4.73451734458,1.87943162311,-3.84260079999,5.65291959462
2.42313738898,12.3332324094,1.8987449643,12.7712372104
8.79175743338,13.0870331956,1.64009072858,10.9195548263
5.4403774778,4.25083398189,-4.19856350714,5.73787244209
-1.6910024778,-2.71536523186,-3.82721774286,2.06619005791
6.7576175666,-2.82156444561,-2.06587197858,5.24450767373
2.43623761101,3.26223634066,-0.494526214294,5.11282528955
3.03485765542,11.5460371269,2.40681954999,6.28114290537
3.88347769982,7.49983791316,-0.841834685725,8.4994605212
6.12209774423,2.31363869942,-0.700488921444,6.78777813702
8.06071778863,4.47743948568,1.89085684284,9.81609575284
7.87933783304,11.6212402719,3.22220260712,12.9444133687
4.67795787744,17.1150410582,0.413548371409,14.2927309845
7.98657792185,12.2888418444,0.724894135692,11.5310486003
3.76519796626,0.372642630711,0.396239899976,5.92936621612
1.79381801066,-4.46355658303,0.657585664256,3.85768383194
7.68243805507,5.21024420322,1.04893142854,7.52600144777
7.73105809947,6.21404498948,1.11027719282,7.57431906359
10.4296781439,5.51784577574,-1.55837704289,6.51263667941
10.2982981883,-3.40835343801,-2.79703127861,2.74095429523
4.25691823269,-4.52455265175,-1.01568551433,2.29927191105
4.1855382771,2.6392481345,1.56566024996,6.84758952687
4.1141583215,3.31304892076,-0.54299398576,7.02590714269
-3.14722163409,0.716849707023,-1.58164822148,0.0142247585136
-0.468601589688,-6.32934950673,-4.40030245719,-3.54745762566
5.03001845472,-2.82554872047,-1.05895669291,1.50085999016
2.54863849912,-1.44174793421,1.41238907137,3.56917760598
6.47725854353,4.39205285205,1.29373483566,4.7774952218
2.67587858793,3.86585363831,-1.06491940006,4.58581283762
-0.39550136766,-6.91034557544,-3.17357363578,-1.32586954656
1.57311867674,-11.0065447892,-4.23222787149,-5.83755193074
1.55173872115,-4.21274400292,-3.72088210721,-1.37923431492
5.99035876556,3.00105678333,-0.42953634293,2.3990833009
5.13897880996,3.78485756959,-0.658190578648,6.07740091673
3.16759885436,-1.85134164415,-1.47684481436,3.37571853255
-2.66378110123,-2.3475408579,1.38450094992,1.12403614837
1.62483894318,-2.39374007165,0.415846714204,-1.59764623581
0.75345898758,5.84006071462,1.47719247849,3.75067138001
0.922079031989,3.78386150087,0.00853824277146,2.36898899583
-4.1293009236,-5.94233771287,-1.74011599295,-1.66269338835
1.2293191208,-7.97853692661,-2.97877022866,0.0156242274752
5.5679391652,0.86526385964,0.702575535619,5.9639418433
13.7465592096,9.0190646459,2.0139212999,14.6022594591
8.91517925401,8.72286543216,-0.0347329358119,12.6605770749
15.1437992984,-3.72333378159,-2.76338717153,5.93889469076
6.14241934283,-5.04953299533,-0.852041407248,2.57721230658
6.00103938724,1.32426779093,1.88930435704,0.795529922401
8.49965943164,7.90806857718,5.10065012132,4.13384753822
1.36827947605,2.54186936344,1.6519958856,2.15216515404
0.356899520455,-2.5543298503,0.973341649886,0.590482769865
-1.47448043514,-0.640529064047,3.19468741417,4.68880038569
-0.985860390741,6.15327172221,2.38603317845,5.98711800151
5.07275965367,13.5470725085,4.09737894274,9.75543561733
5.06137969808,6.25087329472,2.02872470702,1.98375323315
2.98999974247,-4.88532591901,-0.909929528698,-4.13792915103
-0.101380213113,-6.47152513276,-1.49858376441,-5.62961153521
-5.91276016871,-9.1377243465,-1.36723800013,-10.5612939194
-6.94414012431,-0.403923560247,0.744107764152,-9.10297630356
-12.4255200799,3.03987722601,1.18545352843,-4.80465868774
-12.7169000355,-2.81632198773,2.08679929272,-7.72634107192
-8.75827999109,-8.90252120147,0.628145056999,-13.1980234561
-10.5496599467,-3.40872041522,1.19949082128,-6.63970584028
-9.42103990228,4.67508037104,2.15083658557,-4.93138822446
-2.04241985787,-0.381118842706,-0.137817650149,-10.4930706086
-6.78379981346,-10.5573180565,-0.546471885868,-15.6047529928
-11.7751797691,-9.86351727019,2.50487387842,-11.536435377
-9.69655972465,-5.32971648393,0.326219642699,-13.6081177612
-17.4779396802,-0.365915697679,1.50756540698,-10.5098001454
-4.74287790698,7.00083575583,1.37774709302,2.27492005814
4.46384925494,-0.822002208828,-0.453462506866,-1.83138158647
0.960576416859,-1.54484017349,4.24532789324,0.502316768911
1.99730357878,2.47232186185,3.85411829335,2.53601512429
8.1040307407,4.3494838972,1.44290869347,0.289713479679
-0.829242097374,1.93664593253,-1.66830090643,-2.94658816494
0.287485064546,-10.1661920321,-1.99951050632,-7.44288980956
0.474212226465,-7.28902999678,-0.920720106205,-5.73919145417
7.81093938839,-2.59186796145,-1.3419297061,-0.635493098787
5.30766655031,2.3352940739,3.57686069401,1.3582052566
5.15439371223,5.98245610924,3.17565109412,2.08190361198
2.21112087416,-4.82038185542,-0.745558505769,-1.73439803264
-1.02215196393,-8.89321982008,0.593231894345,-4.37069967725
1.70457519799,1.94394221526,3.61202229445,5.00299867813
3.46130235991,4.6011042506,2.12081269456,4.55669703351
1.37802952183,-1.44173371405,0.609603094672,-1.9196046111
2.41475668376,-1.26457167872,2.99839349478,0.994093744281
-0.528516154329,-0.507409643375,3.42718389489,1.23779209966
-0.101788992404,3.39975239197,2.045974295,2.01149045505
-3.22506183048,4.39691442731,2.34476469511,2.25518881043
-0.538334668563,1.06407646266,2.34355509522,-2.79111283419
-8.02160750664,-6.60876150201,-0.267654504667,-7.1674144788
-2.67488034473,-14.3915994667,-2.54886410456,-13.4137161234
-2.8881531828,-7.19443743132,-2.09007370445,-7.47001776803
-0.401426020879,-0.00727539598302,1.88871669566,-1.44631941265
6.21530114104,4.43988663935,2.06750709577,10.5573789427
3.96202830297,-7.1829513253,1.38629749588,2.94107729812
-0.66124453512,-2.44578928996,-0.824912104006,-1.1252243465
1.2454826268,2.08137274538,-0.196121703899,-0.451525991115
-2.50779021128,8.62853478073,-0.177331303788,0.922172364268
4.47893695065,8.06569681606,2.02145909632,4.72587071965
-2.58433588743,0.21285885141,-0.679750503568,1.55956907503
-3.09760872552,-1.41997911325,-4.41096010346,0.753267430418
-3.45088156359,2.88718292209,-1.92216970335,3.4169657858
1.36584559833,10.7743449574,-0.42337930324,9.26066414119
-2.96742723975,6.41150699277,-0.664588903132,2.93436249657
0.349299922171,-2.75133097189,-4.90579850302,-7.65193914805
-6.48397291591,-8.50416893655,-4.54700810291,-6.25824079266
-9.90724575399,-3.5270069012,-1.8182177028,-3.39454243728
-3.08051859207,1.01015513414,-2.97942730269,-0.120844081895
1.81620856986,6.39731716948,-3.46063690258,5.04285427349
-7.11706426822,0.96447920482,-2.94184650247,-1.97344737113
-2.9503371063,-2.48835875984,-2.31305610236,-1.78974901574
-1.78360994438,0.948803275503,-2.64426570225,1.59394933964
5.84311721754,6.04596531084,-1.43547530214,3.09764769502
1.23984437946,4.83312734619,1.38331509797,3.4113460504
1.40657154138,2.64028938152,0.272105498079,5.71504440579
0.803298703308,-0.542548583137,0.000895898188901,5.81874276117
8.25002586522,7.52461345221,2.7996862983,9.53244111656
3.18675302714,11.6617754875,4.05847669841,10.1361394719
4.53348018906,10.5089375229,1.37726709852,13.0498378273
3.39020735099,2.03609955824,-0.673942501369,7.98353618271
-1.56306548709,0.313261593576,0.64484789874,5.92723453809
5.10366167482,-0.049576371086,-0.986361701151,1.46093289347
0.410388836746,5.50758566426,1.86242869896,0.344631248858
0.997115998667,7.0047476996,3.36121909907,9.33832960424
1.27384316059,0.341909734947,0.46000949918,4.58202795962
9.70057032251,1.02907177028,0.778799899286,6.15572631501
5.52729748443,4.44623380562,1.3175902994,7.87942467039
3.16402464635,5.40339584096,0.646380699505,2.83312302578
-2.81924819173,1.8405578763,-1.15482890038,0.246821381159
-6.23252102981,-10.0322800884,-5.53603850027,-6.71948026346
-0.975793867881,-8.69511805301,-4.88724810016,-6.40578190807
-3.47906670596,0.292043982328,-1.61845770005,-1.12208355269
1.46766045596,4.30920601766,-2.46966729995,1.13161480269
-3.95561238212,0.0563680530104,-1.07087689983,-1.13468684192
-10.9488852202,-8.79646991165,-3.28208649972,-8.71098848654
-10.0021580583,-10.0993078763,-3.23329609961,-8.92729013116
-9.13543089636,-7.60214584096,-1.6945056995,-9.10359177577
-10.6887037344,-12.3149838056,-4.6357152994,-13.4598934204
-11.5819765725,-12.3478217703,-5.12692489928,-13.676195065
-12.1052494106,-19.9906597349,-6.21813449917,-17.0924967096
-3.56852224867,-16.6034976996,-6.45934409906,-11.7187983542
-6.78179508676,-8.91633566425,-4.09055369896,-7.89509999885
-9.34506792483,-4.17917362892,-1.58176329885,-7.22140164347
-3.50834076291,-3.80201159358,-1.04297289873,-6.92770328809
-10.741613601,-6.86484955823,-2.51418249862,-8.8240049327
-10.7648864391,-1.21768752289,-0.025392098516,-2.98030657732
-3.80815927716,6.59947451245,3.75339830159,2.70339177806
2.70856788477,5.90663654779,0.742188701704,0.967090133447
2.39529504669,3.34379858313,-0.579020898185,2.38078848883
2.02202220861,0.310960618473,1.41976950192,3.61448684421
4.99874937053,-0.841877346182,-0.551440097966,2.6981851996
4.28547653245,1.79528468916,1.04735030214,4.00188355498
16.9722036944,8.7624467245,1.78614070225,4.80558191036
16.9489308563,8.66960875984,2.01493110237,8.36928026575
9.53565801822,2.38677079518,2.08372150247,4.79297862113
9.47238518014,2.51393283052,2.82251190258,3.23667697651
8.31911234205,8.41109486586,3.77130230269,7.1303753319
4.36583950397,14.5782569012,3.19009270281,7.38407368728
3.2725666659,6.12541893655,0.978883102915,5.01777204267
7.02929382782,2.19258097189,2.03767350303,4.22147039805
2.70602098975,0.869743007228,4.96646390313,0.425168753432
3.18274815166,4.97690504257,1.79525430324,2.01886710882
-2.96052468642,4.48406707791,1.97404470335,4.2325654642
1.3262024755,-0.268770886745,1.71283510346,1.24626381958
4.10292963743,-4.85160885141,1.33162550358,-0.300037825033
7.12965679935,-6.24444681607,1.32041590368,-3.23633946965
-3.14361603874,-0.257284780724,1.74920630379,-2.41264111427
-0.886888876812,4.90987725461,-0.172003296095,-0.508942758883
-1.19016171489,0.277039289955,-1.15321289599,-1.1452444035
-6.28343455297,-5.7457986747,-0.944422495879,-5.25154604812
-4.06670739104,-5.47863663936,1.35436790423,-6.38784769273
-8.94998022913,0.328525395984,5.00315830434,-6.47414933735
-7.74325306721,3.58568743132,3.46194870445,-2.22045098196
-9.19652590529,-4.28715053334,-1.42926089544,-7.67675262658
-2.89979874337,-8.06998849799,-2.38047049533,-7.2030542712
-3.66307158145,-6.73282646265,-2.00168009522,-3.63935591581
-0.216344419532,0.954335572686,0.21711030489,-2.00565756043
-4.9496172576,-0.0485023919682,-1.814099295,-3.43195920505
-10.9328900957,-6.07134035663,-0.765308894886,-9.03826084966
-6.21616293376,-2.42417832129,-0.556518494777,-3.97456249428
-6.44943577184,0.0529837140566,0.832271905332,-0.260864138896
-0.592708609925,2.28014574939,1.64106230544,0.792834216487
-0.425981448003,-0.162692215265,0.729852705554,-4.61346742813
-2.09925428608,1.82446982008,0.72864310566,2.17023092726
-9.25252712415,-2.73836814458,-0.602566494228,1.03392928264
3.45420003776,-3.95120610924,-0.75377609412,-0.392372361977
11.7009271997,6.6159559261,-0.304985694012,8.68132599341
8.2276543616,8.15311796144,-1.9161952939,9.31502434879
8.18438152353,3.79027999679,-1.55740489379,5.47872270417
7.18110868545,2.37744203213,0.351385506321,5.41242105956
4.27783584737,3.27460406747,0.980175906428,5.30611941494
4.60456300928,4.54176610281,1.62896630654,4.45981777032
5.30129017121,5.29892813815,3.46775670665,4.33351612571
8.35801733313,1.94609017349,-0.55345289324,4.46721448109
2.37474449505,-4.02674779117,0.345337506871,-0.0790871635254
-0.208528343028,-10.1195857558,-0.615872093022,-4.30538880814
-0.559934434808,5.83374639393,4.26772357723,4.48025045896
12.42759881,11.8272862038,3.17594029054,8.24137523486
2.23513205472,0.650826013691,-0.675842996145,-1.96749998925
