2.47603561047,1.73160973837,-6.10396438955,7.37019258721
2.71219302212,1.77405978187,-6.68566253892,7.96913640473
3.50835043377,5.60650982535,-1.2473606883,10.6780802223
-0.685492154589,1.09895986885,-1.22905883768,7.93702403978
1.21066525706,3.50140991234,-1.16075698705,9.51596785731
2.26682266871,10.9738599558,0.537544863568,11.3749116748
3.69298008035,19.9763099993,5.92584671419,11.2538554924
5.139137492,17.0087600428,8.27414856481,19.4927993099
-4.26470509636,4.8412100863,0.00245041543894,7.8317431274
-1.67854768471,1.90366012979,-2.42924773394,-3.13931305507
-3.94239027306,3.22611017328,1.43905411668,1.67963076245
-8.71623286142,-2.66143978323,0.997355967305,-3.34142542002
-4.70007544977,-11.7689897397,-0.304342182073,-14.7324816025
-11.2339180381,-14.6165396963,-0.88604033145,-20.863537785
-7.66776062648,-9.46408965276,-1.43773848082,-15.8745939675
-9.22160321484,-7.06163960927,-0.569436630205,-13.5356501499
-9.81544580319,-8.72918956578,0.348865220421,-15.1367063324
-12.8392883915,-12.9267395223,-0.722832928957,-18.7477625149
-13.9731309799,-11.5742894788,0.685468921663,-16.7688186974
-14.1169735682,-8.54183943531,0.663770772288,-13.3198748798
-7.0108161566,-4.66938939182,0.13207262291,-12.1309310623
0.525341255045,-3.98693934833,-0.399625526468,-10.4619872448
-0.148501333311,-9.18448930484,-0.941323675845,-12.6430434273
-4.47234392167,-13.6420392614,0.386978174778,-17.5740996097
-3.14618651002,-8.17958921786,2.1952800254,-13.3451557922
-4.56002909837,-2.44713917437,1.63358187602,-11.2062119747
-5.84387168673,-3.54468913088,1.72188372664,-13.9872681572
-4.17771427508,0.617760912606,3.07018557727,-5.10832433964
-0.211556863433,-2.3897890439,1.21848742789,-4.96938052211
-0.935399451788,1.69266099959,2.57678927852,-1.89043670459
4.33075795986,9.85511104308,3.52509112914,5.75850711294
9.2369153715,10.5575610866,3.23339297976,6.72745093046
6.01307278315,9.12001113006,4.26169483038,4.23639474799
5.9792301948,8.77246117355,4.52999668101,6.01533856551
2.68538760645,7.35491121704,3.36829853163,4.54428238303
-0.348454981911,8.61736126053,0.796600382251,4.42322620056
-0.242297570261,3.14981130402,-2.01509776713,0.302170018083
-3.42614015862,-2.60773865249,-1.9867959165,-3.19888616439
0.570017253027,-8.075288609,-3.37849406588,-3.94994234687
2.87617466468,-0.482838565509,-2.59019221526,-1.82099852934
8.77233207632,6.56961147798,-0.961890364637,2.79794528818
11.398489488,5.08206152147,-1.16358851401,6.3368891057
13.5846468996,2.81451156496,-1.47528666339,6.16583292323
9.77080431126,1.09696160845,-2.00698481277,6.71477674075
15.2169617229,-0.0505883480582,-3.47868296214,7.50372055828
14.0631191346,3.94186169543,-3.14038111152,9.8126643758
13.1792765462,3.34431173892,-2.6320792609,3.61160819333
16.7254339578,8.05676178241,-0.0837774102765,5.68055201085
11.2915913695,-1.9907881741,-1.35547555966,0.0994958283743
1.75774878114,-0.57833813061,-0.47717370903,1.2484396459
4.85390619278,9.15411191288,1.84112814159,11.0073834634
7.55006360443,5.14656195637,-0.340570007786,7.54632728095
4.83622101607,-2.33098800014,-1.30226815716,1.52527109847
3.93237842772,1.83146204335,0.17603369346,4.644214916
7.06853583937,6.09391208684,2.20433554408,10.7331587335
-1.65530674898,6.12636213033,3.4626373947,12.262102551
5.11085066266,5.59881217382,3.15093924533,11.7310463686
4.38700807431,-2.09873778269,-0.360758904048,5.47999018609
-5.16683451405,-4.9962877392,-0.822457053426,0.668934003617
-9.4906771024,-0.763837695707,-0.644155202801,3.46787782114
-1.56451969075,3.53861234778,-1.51585335218,8.92682163867
-3.76836227911,-3.19893760873,-1.93755150156,0.265765456189
3.66779513254,-2.91648756524,-0.289249650938,-0.745290726286
-1.03604745581,-3.73403752175,0.209052199687,1.58365309124
-5.38989004417,-3.97158747826,0.0773540503105,2.49259690876
2.20626736748,4.09086256523,1.28565590093,6.12154072629
-3.79757522088,-0.956687391277,-1.41604224844,3.71048454381
-3.36141780923,-1.56423734779,0.0322596021797,-0.660571638665
-0.145260397581,0.0682126957036,1.6905614528,3.19837217886
6.01089701406,-1.47933726081,1.32886330342,4.32731599638
2.86705442571,4.99311278268,1.71716515404,4.64625981391
-1.24678816264,-0.434437173826,-0.90453299533,-3.34479636857
1.849369249,-0.731987130337,-0.136231144708,-2.08585255104
2.21552666065,-7.42953708685,-1.18792929408,-4.73690873352
-1.58831592771,-3.27708704336,-2.29962744346,-2.337964916
0.207841483938,0.795363000132,-2.17132559284,1.50097890153
-1.96600110441,0.717813043622,-0.963023742217,6.48992271905
2.07015630723,-6.41973691289,-1.27472189159,-0.851133463422
-5.92368628112,-11.3072868694,-1.06642004097,-5.2421896459
-3.47752886948,-3.92483682591,-1.57811819035,-0.0532458283739
-1.34137145783,-3.62238678242,-2.64981633973,3.62569798915
-5.17521404618,0.170063261074,-0.0215144891008,4.26464180667
-6.65905663454,-4.62748669543,0.786787361521,2.6635856242
-7.71289922289,1.01496334805,4.83508921214,5.60252944172
3.07325818875,2.74741339155,2.80339106276,7.71147325925
0.709415600399,3.91986343503,1.40169291339,7.96041707677
5.48557301205,7.15231347852,0.879994764011,7.4593608943
-2.18826957631,2.02476352201,-0.431703385366,4.71830471182
-2.71211216466,-5.3927864345,-1.01340153474,2.20724852934
-0.415954753014,-1.85033639101,0.0349003158808,3.28619234687
6.05020265863,-2.46788634751,-1.03679783349,0.815136164393
-0.283639929723,4.18456369597,-1.38849598288,2.90407998192
-2.54748251808,-6.30298626053,-2.24019413225,-3.67697620056
0.81867489357,-7.50053621705,-1.63189228163,-1.43803238303
2.30483230521,-1.56808617355,-0.353590431008,4.81091143449
2.09098971686,4.74436386994,-0.335288580383,3.02985525201
0.137147128509,0.0868139134218,-2.78698672976,-6.10120093046
-0.156695459846,-6.16073604309,-3.03868487914,-6.13225711294
1.1294619518,-3.7382859996,-0.420383028519,1.91668670459
3.70561936345,2.5341640439,0.927918822104,6.17563052211
3.16177677509,0.376614087385,-1.19377932727,3.07457433964
3.97793418674,3.73906413088,-1.26547747665,4.22351815716
3.43409159838,1.17151417437,-0.367175626023,7.45246197468
-0.979750989965,-1.11603578214,0.4611262246,4.36140579221
6.51640642168,7.31641426135,4.16942807522,1.73034960973
5.28256383332,-2.48113569516,1.73772992584,3.97929342726
-0.831278755028,-2.51868565167,-4.16396822354,-1.33176275522
-13.7551213434,-4.87623560818,-5.21566637291,-11.2928189377
-14.2889639317,-9.33378556469,-1.27736452229,-15.1938751202
-10.8028065201,-5.7213355212,0.890937328335,-9.93493130265
-11.8866491084,-5.79888547771,0.239239178958,-9.60598748512
-11.8504916968,-2.72643543422,-1.36245897042,-9.9570436676
-7.88433428515,-1.98398539073,0.625842880199,-8.38809985007
-9.6181768735,-3.87153534724,1.25414473082,-8.39915603255
-8.82201946186,-7.67908530375,-2.65755341855,-9.68021221502
-0.0858620502113,-1.20663526026,-2.98925156793,-5.9212683975
3.34029536143,3.80581478323,1.25905028269,-0.0323245799764
-0.333547226921,5.31826482672,3.49735213332,-0.153380762452
2.00261018473,4.07071487021,3.47565398394,-1.84443694493
0.158767596371,3.32316491369,3.96395583456,-0.495493127404
2.83492500802,6.06561495719,3.02225768518,-0.866549309879
4.48108241966,0.868065000675,-0.729440464194,-3.35760549236
6.90723983131,3.29051504417,1.05886138643,0.471338325169
8.14339724295,-2.95703491234,0.507163237053,-5.70971785731
4.6695546546,6.35541513115,0.375465087676,0.519225960218
6.76571206625,6.58786517464,-1.4562330617,-0.321830222258
-4.66813052211,8.90031521813,2.07206878892,0.397113595266
-3.04197311046,6.00276526162,2.12037063954,2.86605741279
-10.209284157,-1.5969440407,1.00601380813,-6.13104651163
-8.70475187694,-6.96222838651,0.210968315088,-8.62997072995
-6.73021959691,-2.08751273233,-1.65407717795,-10.5788949483
-3.20568731688,-3.14279707814,-2.859122671,-10.7978191666
0.908844963149,-7.22808142396,-1.64416816404,-7.32674338491
-2.07662275682,2.33663423023,0.170786342922,-1.33566760323
1.61790952321,2.25134988441,0.315740849881,-0.724591821553
-1.27755819676,4.25606553859,0.820695356841,-3.25351603987
3.98697408327,-1.52921880723,-1.8343501362,-7.56244025819
-2.2484936367,0.0154968469578,-2.44939562924,-4.47136447652
1.49603864333,-0.789787498856,-2.53444112228,-0.670288694836
4.43057092337,4.26492815532,3.98051338467,5.03078708684
1.4051032034,4.57964380951,3.82546789163,4.61186286852
-5.14036451657,3.7743594637,-5.03957760141,0.902938650202
4.03416776346,3.16907511788,-2.83462309445,0.144014431881
6.31870004349,3.70379077206,-0.419668587492,-1.35490978644
4.52323232352,3.37850642625,-2.37471408054,3.09616599524
9.46776460355,5.49322208043,-3.09975957358,6.43724177692
5.05229688358,8.26793773461,-2.02480506662,5.8983175586
0.806829163615,3.3526533888,1.43014944034,5.76939334028
1.22136144364,-3.93263095702,-0.464896052697,-0.309530878044
6.05589372367,-1.15791530283,0.320058454261,0.941544903635
4.05042600371,6.70680035135,2.41501296122,5.75262068531
11.7949582837,7.49151600554,0.249967468179,6.92369646699
9.72949056377,0.94623165972,0.144921975134,4.79477224867
6.8540228438,2.53094731391,1.1398764821,1.31584803035
0.52855512383,-1.44433703191,-0.555169010946,-0.763076187969
5.83308740386,-0.579621377728,0.189785496012,2.05799959371
9.08761968389,0.635094276458,-0.695259997032,0.0690753753892
9.14215196392,-7.37019006936,-3.39030549007,-1.70984884293
-2.20331575604,-5.69547441517,-2.28535098311,0.371226938748
9.22121652399,-8.78075876099,-2.46039647616,-1.30769727957
2.41574880401,-2.42604310681,-1.3954419692,-2.97662149789
5.95028108405,3.20867254738,1.08951253776,1.04445428379
5.26481336408,-7.00661179844,0.444467044723,0.0655300654641
3.64934564411,-12.1918961443,-1.80057844832,-2.03339415286
0.16387792414,-5.59718049007,-1.50562394136,-0.442318371177
2.53841020417,-5.08246483589,-1.0306694344,0.898757410502
-1.2470575158,-4.1277491817,-1.24571492745,-1.31016680782
3.91747476424,-6.82303352752,-0.670760420486,-0.0090910261398
-3.19799295573,-11.9483178733,-0.575805913526,-2.16801524446
-2.5434606757,-7.69360221915,1.75914859343,0.203060537218
-0.658928395675,6.38111343504,2.68410310039,6.3241363189
-1.94439611564,1.93582908922,-1.09094239265,5.85521210058
-4.74986383561,-7.9594552566,-4.2059878857,0.166287882256
-4.16533155558,-3.60473960241,-3.06103337874,0.907363663935
-3.26079927555,2.40997605177,-0.0160788717731,7.00843944561
2.64373300448,7.70469170596,1.46887563518,11.0995152273
3.90826528451,9.31940736014,3.64383014214,13.250591009
-1.62720243545,6.90412301432,2.5587846491,12.2016667907
4.50732984457,6.40883866851,0.19373915606,9.72274257233
1.45186212461,12.5635543227,1.96869366302,14.553818354
7.20639440464,13.6082699769,0.593648169975,17.3948941357
8.24092668467,20.7429856311,3.34860267694,18.8259699174
11.3254589647,15.8877012852,3.26355718389,15.257045699
-1.78000875527,7.04241693943,1.25851169085,10.3381214807
-1.79547647524,8.60713259361,2.32346619781,12.7191972624
9.13905580479,15.7118482478,2.66842070477,16.7402730441
3.94358808483,11.896563902,0.523375211724,13.3713488258
0.888120364856,6.33127955617,-0.401670281313,7.65242460744
2.70265264489,3.95599521035,-0.416715774354,5.24350038912
-0.0828150750822,10.2407108645,0.568238732605,4.2345761708
2.07171720495,13.1954265187,3.37319323956,7.70565195248
2.52624948498,4.3401421729,-0.0418522534783,3.99672773416
-3.42921823499,2.50485782709,1.13310225348,2.22780351584
-8.00468595496,0.989573481267,2.90805676044,2.09887929752
1.96984632507,3.82428913545,3.71301126739,4.4299550792
-7.60562139489,10.3590047896,4.08796577435,6.06103086088
-4.18108911486,0.523720443824,1.38292028131,-0.437893357444
-9.80655683484,-3.41156390199,2.42787478827,-6.44681757576
-10.4020245548,-3.67684824781,3.84282929523,-5.30574179409
-6.18749227477,-10.8321325936,0.137783802187,-6.73466601241
-9.20295999474,-3.92741693944,0.39273830915,-5.63359023073
-8.38842771471,-6.83270128526,-0.742307183893,-8.13251444905
-9.31389543468,-11.2279856311,-1.04735267693,-13.3214386674
-13.1793631546,-12.5232699769,-1.77239816997,-13.3603628857
-6.70483087462,-11.6285543227,-1.65744366302,-12.979287104
-6.63029859459,-5.71383866852,3.10751084394,-13.2882113223
-5.28576631456,-2.48912301434,2.2924653509,-9.70713554065
-10.2112340345,-9.12440736015,-0.492580142141,-14.486059759
-6.5167017545,-10.379691706,1.48237436482,-14.1449839773
-12.0521694745,-9.95497605178,0.327328871776,-12.4039081956
-13.1876371944,-7.4002603976,0.332283378732,-12.3828324139
-14.2931049144,-4.20554474342,2.01723788569,-12.9117566323
-12.2085726344,-13.0808290892,1.40219239265,-13.5106808506
-11.6640403543,-8.87611343505,3.55714689961,-12.8396050689
-5.3295080743,-3.69139778086,3.00210140657,-6.73852928722
-7.42497579427,-5.72668212668,0.647055913527,-6.21745350554
-11.0604435142,-3.15196647249,0.452010420486,-9.40637772386
-3.15591123421,-9.83725081831,-1.33303507256,-12.4953019422
-4.56137895418,-9.43253516412,1.5819194344,-12.9542261605
-8.84684667415,-11.7578195099,-0.193126058639,-12.7331503788
1.71768560588,-3.89310385576,0.0518284483187,-5.80207459714
-5.38778211409,0.431611798427,3.07678295528,-5.28099881546
-3.90324983406,-5.67367254739,0.411737462236,-10.5599230338
-10.328717554,-13.4989568932,-2.98330803081,-16.0988472521
-9.024185274,-12.244241239,-3.70835352385,-13.6377714704
-4.29965299397,-6.98952558484,-1.82339901689,-7.16669568875
-4.22512071393,-2.14480993065,0.64155549007,-8.70561990707
-7.8205884339,-11.1300942765,-1.74349000297,-14.8545441254
-10.5360561539,-10.4753786223,-0.66853549601,-10.5134683437
-9.66152387384,-3.2306629681,0.556419010947,-5.10239256203
0.383008406192,2.97405268608,1.09137351791,0.668683219648
-1.06245931378,-2.63123165974,0.456328024866,-4.99024099867
-10.4779270337,-8.14651600555,-0.608717468178,-9.91916521699
2.13660524628,-13.2718003514,0.0462370387795,-9.58808943531
3.68113752631,-2.55708469718,0.371191545739,-3.32701365364
-0.314330193654,2.847630957,-0.983853947302,3.43406212804
4.84020208638,5.78234661119,-2.09889944035,3.85513790972
4.95473436641,-6.09293773463,-4.30394493338,-2.4437863086
-3.06073335356,-5.68822208044,-1.49899042643,-0.852710526918
0.37379892647,-0.323506426259,-2.25403591947,0.758365254761
7.3983312065,10.6312092279,1.78091858749,4.53944103644
13.6428634865,15.9559248821,5.94587309445,12.7905168181
15.7473957666,12.8906405363,2.78082760141,17.6915925998
9.88192804659,3.34535619048,-4.03421789163,4.72266838148
11.6964603266,5.25007184466,-2.07926338468,8.82374416316
9.11099260665,11.9547874988,1.57569112229,12.3148199448
7.64552488669,6.51950315303,0.100645629242,6.65589572651
5.08005716672,3.59421880721,-0.784399863798,8.60697150819
10.9245894467,-2.8210655386,-2.62944535684,6.54804728987
6.54912172678,2.54365011558,-1.83449084988,5.70912307155
7.32365400681,8.91836576976,-2.49953634293,9.62019885323
9.82818628684,12.4730814239,-1.82458183596,10.8312746349
6.84271856687,5.00779707813,-3.37962732901,5.58235041659
1.8472508469,4.33251273232,-1.53467282205,6.59342619827
9.27178312694,9.36722838651,-1.97971831509,13.3445019799
22.916315407,17.8819440407,-0.494763808128,24.4755777616
7.99744537817,7.07001680674,0.0443697478731,11.3439831933
7.44398166541,4.56393735678,0.151306340696,6.68866157372
-0.389482047347,-2.25214209318,0.198242933515,-1.26666004584
0.277054239894,-3.32822154315,1.11517952634,-2.47198166539
2.65359052714,-2.37430099311,-0.467883880847,-2.43730328495
-2.96987318562,1.77961955693,0.649052711975,1.05737509549
-6.16333689838,-5.77645989304,0.475989304792,-5.24794652406
-0.61680061114,-7.972539343,-0.557074102388,-6.61326814362
1.9197356761,-4.79861879296,-0.820137509567,-3.70858976318
3.10627196334,0.985301757075,-2.61320091675,1.38608861727
0.292808250586,0.919222307115,-2.45626432393,0.000766997708411
2.68934453783,0.203142857154,-0.149327731109,-1.65455462185
-6.55411917493,0.0870634071944,1.97760886171,-3.48987624141
-9.25758288769,-1.79901604277,1.32454545453,-5.52519786096
-10.1410466004,-0.375095492735,0.701482047352,-4.72051948052
-10.1345103132,0.0288250573067,-0.88158135983,-6.40584110008
-9.25797402596,-5.18725439266,-3.63464476701,-6.56116271963
-4.85143773872,-2.34333384262,-0.657708174189,1.19351566081
1.09509854852,3.22058670742,0.369228418629,3.53819404125
2.87163483576,11.3545072575,0.0661650114489,6.2928724217
3.348171123,7.67842780749,0.373101604269,6.15755080214
5.04470741024,2.78234835753,2.28003819709,5.01222918258
5.97124369748,4.61626890757,3.61697478991,7.13690756303
7.00777998473,1.86018945761,3.48391138273,3.40158594347
2.83431627197,0.874110007644,1.23084797555,4.20626432391
5.25085255921,3.52803055768,-1.23221543164,3.75094270435
6.83738884645,-2.03804889228,-0.355278838812,-0.714378915202
3.40392513369,-3.83412834224,0.0916577540047,-0.139700534759
0.930461420936,-1.40020779221,-1.02140565317,1.62497784568
0.576997708176,4.72371275783,-0.174469060355,1.21965622613
2.01353399542,-0.282366692129,-1.42753246753,-1.23566539343
-3.34992971734,-1.93844614209,-0.730595874717,-2.33098701299
-3.8133934301,-6.12452559206,-0.083659281896,-3.73630863254
-6.06685714286,-4.45060504202,-0.886722689076,-5.7516302521
