18.2910065407,-9.45365188953,-0.317736191862,-0.726700581403
14.4657987605,-5.4289757771,1.20239794108,-2.07044348563
-6.49940901963,2.50570033534,0.472532074024,-3.11418638986
-5.38461679981,2.11037644777,-0.867333793034,-4.14792929409
1.81017542003,-1.68494743979,-3.47719966009,1.98832780168
0.304967639859,-1.90027132736,-2.73706552715,-0.205415102551
9.28975985969,-1.16559521493,1.0730686058,0.180841993219
10.5145520795,-1.7409191025,-0.286797261262,3.37709908899
12.3293442994,-2.00624299006,-0.50666312832,3.49335618476
10.1341365192,0.298433122371,-0.296528995377,1.47961328053
7.01892873902,2.87310923481,1.60360513756,2.3958703763
8.58372095885,0.447785347242,0.0937392705082,-0.347872527931
6.47851317868,0.622461459676,-0.816126596549,1.32838456784
7.68330539851,2.79713757211,-2.53599246361,4.57464166361
8.32809761835,-5.39818631546,-3.20585833066,4.04089875938
11.0528898382,-6.89351020303,-4.09572419772,-2.26284414485
8.50768205801,-4.91883409059,-3.50559006478,-2.52658704908
6.31247427783,-3.42415797816,-3.59545593184,0.62967004669
0.31726649767,-7.61948186573,-3.04532179889,-3.32407285754
0.892058717498,-4.70480575329,-1.97518766595,-1.37781576177
-4.18314906267,-5.62012964086,-0.605053533007,-0.801558666
-4.09835684284,-11.7154535284,-2.76491940006,-6.36530157023
2.65643537699,-6.35077741599,-2.40478526712,-4.96904447446
-4.02877240317,-3.79610130356,-1.39465113418,-1.08278737869
-1.48398018334,-1.76142519113,-2.77451700124,1.80346971708
8.43081203649,-2.08674907869,-2.34438286829,2.53972681285
1.85560425632,-4.70207296626,-3.01424873535,-1.81401609138
-1.20960352385,2.70260314618,-5.19411460241,-2.21775899561
-0.114811304018,-4.69272074139,-5.86398046947,-4.38150189984
-5.77001908419,0.471955371046,-4.76384633652,-5.42524480407
3.50477313565,-4.37336851652,-6.70371220358,-1.9189877083
-7.88043464452,-3.64869240409,-4.37357807064,-3.57273061253
-1.51564242469,2.42598370834,-2.29344393769,-1.06647351676
-0.0208502048627,3.02065982078,-2.66330980475,2.73978357901
-1.13605798503,4.49533593321,-1.83317567181,6.13604067478
-0.601265765199,2.87001204565,-2.65304153887,1.47229777055
2.18352645464,0.634688158079,-4.95290740592,-1.41144513368
-0.141681325535,2.44936427051,-3.67277327298,-0.0451880379096
4.0631108943,5.94404038295,-2.88263914004,1.70106905786
2.39790311413,3.75871649538,-5.4025050071,0.15732615363
-7.90730466604,-6.36660739219,-6.41237087415,-6.4064167506
-5.87251244621,-4.08193127975,-4.46223674121,-3.64015965483
-7.05772022638,-4.38725516732,-4.14210260827,-5.42390255906
-1.88292800654,-7.22257905489,-4.74196847533,-7.76764546329
-14.2881357867,-3.57790294245,-4.78183434238,-6.47138836752
-9.46334356688,-5.36322683002,-4.75170020944,-7.11513127175
-6.89855134705,-0.218550717585,-1.5015660765,-1.96887417598
-3.34375912722,6.80612539485,0.238568056446,5.53738291979
-4.30896690739,1.71080150728,-0.00129781061241,1.43364001556
-10.6541746876,1.11547761971,-0.171163677669,-4.51010288867
-9.22938246773,-0.689846267855,0.098970455273,-3.4138457929
-4.71459024789,-2.96517015542,1.30910458822,-5.19758869713
-0.499798028064,-4.82049404299,-0.400761278841,-8.71133160136
-1.14500580823,-4.27581793055,-3.4606271459,-5.55507450559
-5.3702135884,0.978858181883,-2.63049301296,-1.03881740982
-4.99542136857,1.94353429431,-2.02035888001,-0.232560314047
1.05937085126,1.89821040675,-3.20022474707,0.913696781723
1.6541630711,10.4628865192,-0.870090614128,6.36995387749
1.29895529092,8.25756263162,-0.0399564811851,7.34621097326
1.29374751076,12.1122387441,1.04017765176,7.62246806903
-0.991460269408,12.0669148565,2.3603117847,7.8687251648
4.55333195042,14.1515909689,6.70044591764,10.3049822606
1.12812417025,9.97626708135,7.98058005059,5.48123935634
-4.70708360992,13.4609431938,9.66071418353,6.39749645211
2.59770860992,10.8956193062,9.56084831647,3.61375354788
-4.86749917025,7.57029541865,12.6409824494,1.13001064365
-1.52270695042,5.11497153109,11.9811165824,0.706267739424
0.96208526941,5.18964764352,11.3412507153,0.952524835193
0.776877489239,0.814323755953,7.03138484824,-2.37121806904
-2.75833029093,0.928999868385,7.63151898118,-2.57496097327
-11.9935380711,2.34367598082,11.3316531141,-3.4887038775
-14.6287458513,-0.271647906749,11.3517872471,-9.29244678173
-21.5839536314,-2.36697179432,11.65192138,-7.30618968596
-25.5891614116,-2.43229568188,9.71205551295,-5.26993259018
-18.7043691918,-3.45761956945,8.8221896459,-6.09367549442
-20.8095769719,-1.95294345701,9.94232377884,-5.55741839864
-14.9347847521,1.04173265542,10.8924579118,-0.0511613028757
-17.8499925323,2.34640876785,12.5725920447,3.2150957929
-15.9452003124,2.69108488029,12.0327261777,4.98135288866
-7.57040809262,5.61576099272,8.33286031061,7.21760998443
-6.60561587278,8.30043710515,8.02299444355,11.3338670802
-8.11082365295,5.87511321759,6.2631285765,9.66012417597
2.92396856688,4.71978933002,4.88326270944,8.09638127174
0.508760786714,8.94446544246,4.82339684238,10.2926383675
-1.36644699346,5.85914155489,3.32353097533,8.40889546329
13.1583452264,10.3838176673,3.98366510827,11.4551525591
7.47313744621,12.1684937798,5.37379924121,8.17140965483
6.64792966604,7.21316989219,3.49393337415,5.0476667506
5.39272188587,6.36784600462,3.0540675071,7.32392384636
-0.0624858942974,6.66252211705,2.92420164004,6.81018094214
0.582306325534,0.927198229492,1.85433577298,4.0864380379
-0.312901454636,7.86187434192,5.93446990592,7.69269513368
-2.5981092348,11.4365504544,9.28460403887,6.54895222944
2.93668298503,3.04122656679,4.98473817181,2.19520932522
4.32147520486,6.99590267922,3.50487230475,3.11146642099
-3.45373257531,3.29057879166,5.7050064377,5.17772351676
-0.398940355477,-1.28474509591,2.82514057064,0.753980612526
-10.7041481356,-0.880068983479,1.33527470358,0.660237708296
2.86064408418,5.45460712896,2.61540883652,6.07649480407
7.25543630402,6.07928324139,1.43554296947,8.00275189984
7.66022852385,3.35395935383,1.54567710241,9.62900899561
5.01502074368,3.31863546626,-0.124188764648,7.42526609138
10.0698129635,2.20331157869,-1.05405463171,3.96152318715
9.08460518334,3.34798769113,2.81607950124,7.13778028292
6.77939740317,-0.0273361964428,3.10621363418,2.44403737869
7.864189623,0.0873399159937,2.39634776712,-0.0597055255421
4.21898184284,-9.69798397157,-1.95351809994,-6.65344842977
2.54377406267,-10.3133078591,-2.08338396699,-4.817191334
5.2885662825,-10.1986317467,-3.17324983405,-7.58093423823
-0.456641497673,-9.39395563427,-3.39311570111,-8.49467714246
6.93815072216,-8.77927952184,-5.73298156816,-4.31842004669
-0.757057058006,-11.5746034094,-6.17284743522,-6.50216295092
-3.48226483817,-13.309927297,-7.84271330228,-9.78590585515
1.58252738166,-15.3852511845,-10.9525791693,-12.6496487594
-1.47268039851,-12.5905750721,-12.8424450364,-11.3033916636
4.82211182132,-16.2258989597,-12.6423109035,-13.1071345678
-12.6630959589,-12.9412228472,-9.28217677051,-14.0508774721
-3.11830373902,-15.8865467348,-10.6220426376,-12.8646203763
-7.30351151919,-13.0218706224,-10.8619085046,-11.7383632805
-4.86871929936,-7.53719450994,-9.49177437168,-9.01210618476
-3.32392707952,-3.9625183975,-7.47164023874,-6.03584908899
8.61086514031,-2.78784228507,-4.4015061058,-3.88959199322
5.71565736014,0.626833827366,-5.52137197285,-2.39333489745
12.02044958,2.8715099398,-5.65123783991,3.22292219832
11.3952417998,4.41618605223,-5.40110370697,3.39917929409
13.9400340196,0.600862164662,-6.31096957402,4.94543638986
17.2648262395,7.0355382771,-4.96083544108,8.50169348563
19.6096184593,5.97021438953,-4.80070130814,7.1879505814
11.5500835756,12.2351744186,0.0849963662777,10.6687899709
5.55037384408,13.5598198018,-0.279774737915,12.0657553848
9.74066411257,7.32446518495,-0.644545842109,10.8327207986
4.22095438107,4.42911056812,1.4706830537,7.32968621246
6.51124464957,10.6637559513,3.7259119495,11.5966516263
5.47153491806,9.88840133446,2.55114084531,8.12361704014
15.7018251866,12.2630467176,2.32636974112,5.81058245399
5.67211545505,8.71769210081,3.05159863692,5.10754786783
2.93240572354,11.382337484,5.79682753273,10.0845132817
-0.877304007958,13.3969828672,5.56205642854,13.0914786955
0.362986260534,5.17162825032,0.147285324344,5.28844410936
3.16327652903,5.22627363349,0.0225142201507,4.62540952321
-1.22643320248,-0.829080983338,-0.522256884043,0.222374937051
-5.73614293398,-0.804435600166,-1.35702798824,-0.240659649106
0.664147334512,0.320209783007,-2.01179909243,-0.173694235262
2.68443760301,-0.705144833821,-2.17657019662,0.793271178582
4.1547278715,1.88950054935,-2.13134130082,1.95023659243
-3.61498186001,-5.88585406748,-3.63611240501,-4.49279799373
2.94530840849,-7.62120868431,-4.5008835092,-2.96583257989
0.785598676986,-12.6465633011,-8.1256546134,-6.76886716604
-5.73411105452,-9.31191791796,-9.23042571759,-4.8819017522
2.34617921398,-6.91727253479,-7.40519682178,-2.13493633835
-0.103530517528,-9.01262715162,-8.21996792598,-5.56797092451
0.526759750963,-7.75798176845,-9.11473903017,-5.04100551067
-1.92294998054,-20.3333363853,-11.9395101344,-10.4340400968
0.567340287955,-16.3986910021,-10.0242812386,-10.397074683
5.11763055645,-7.40404561894,-7.55905234275,-5.46010926914
1.88792082494,-17.6094002358,-11.3438234469,-10.1031438553
-4.85178890656,-17.0747548526,-11.9485945511,-10.1761784415
0.298501361933,-8.71010946942,-6.61336565533,-2.46921302761
6.85879163042,-3.82546408625,-5.16813675952,-0.0922476137621
7.24908189892,-2.46081870308,-4.55290786372,-1.92528219992
2.44937216742,1.7638266801,-2.34767896791,3.29168321393
2.21966243591,3.17847206326,1.8675499279,4.50864862777
-2.34004729559,5.59311744644,2.3527788237,2.80561404161
4.4502429729,8.68776282961,2.05800771951,6.95257945546
9.8005332414,7.46240821278,3.00323661532,5.7895448693
0.310823509892,6.95705359595,3.13846551112,1.37651028314
-1.17888622162,9.01169897912,4.06369440693,3.17347569699
-1.30859595312,7.2763443623,3.76892330274,0.690441110832
5.37169431537,4.31098974547,0.854152198543,-2.18259347532
7.39198458387,4.98563512864,2.58938109435,-0.175628061481
6.57227485236,6.39028051181,4.23460999016,1.02133735236
9.95256512086,2.77492589498,2.56983888596,-0.0216972337948
11.1028553894,0.529571278152,2.09506778177,-4.09473181995
11.3831456578,6.94421666133,2.87029667758,2.65223359389
-0.456564073658,-6.8011379555,0.475525573383,-5.72080099226
-4.55627380516,-7.14649257233,4.13075446919,-8.61383557842
-1.90598353667,-9.00184718916,1.725983365,-6.04687016458
-8.82569326818,-7.53720180599,2.3512122608,-7.17990475073
-11.9254029997,-6.39255642282,3.38644115661,-7.67293933689
-7.15511273119,-7.15791103965,1.95167005242,-8.68597392304
-11.5748224627,-9.49326565647,1.11689894822,-7.4490085092
-5.8345321942,-4.4386202733,3.68212784403,-6.02204309536
0.00575807429777,-1.48397489013,3.71735673984,-1.78507768151
-3.11395165721,-6.68932950696,2.50258563564,-6.93811226767
-6.46366138871,-1.65468412379,4.61781453145,-5.62114685382
-0.663371120216,-5.81003874062,3.47304342726,-5.72418143998
-7.31308085172,-6.04539335745,3.28827232306,-7.29721602614
-14.5427905832,-0.390747974274,5.75350121887,-5.87025061229
-4.18250031474,-1.0761025911,7.04873011468,-4.25328519845
-11.7522100462,4.19854279207,6.28395901048,-1.46631978461
-4.12191977774,5.41318817524,4.36918790629,-1.69935437076
-2.99162950925,1.59783355841,3.5844168021,-1.95238895692
-6.83133924075,6.50247894158,5.4096456979,0.254576456926
-7.20104897226,1.02712432476,2.11487459371,-2.00845812923
-2.20075870377,-7.99823029207,-3.07989651048,-8.77149271539
-9.99046843527,-3.6335849089,2.79533238532,-7.32452730154
-6.30017816678,-2.79893952573,5.17056128113,-0.807561887699
-13.3098878983,2.20570585744,5.76579017694,2.93940352614
-12.9795976298,2.55035124061,4.69101907274,1.74636893999
-5.34930736129,7.62499662378,6.06624796855,5.27333435383
-0.979017092795,7.93964200696,6.22147686436,9.69029976768
-10.4087268243,7.30428739013,6.47670576016,8.96726518152
-2.56843655581,9.5589327733,7.47193465597,8.06423059536
0.881853712686,4.51357815647,6.25716355178,6.60119600921
-5.70785601882,1.27822353964,6.41239244758,1.76816142305
-9.80756575033,2.38286892282,8.12762134339,3.03512683689
-2.95727548183,3.31751430599,6.7328502392,5.72209225074
-8.48698521333,1.43215968916,4.328079135,1.28905766458
-2.46669494484,-0.753194927671,2.66330803081,4.32602307842
-0.586404676345,4.8314504555,2.00853692662,6.75298849227
-2.29611440785,0.276095838672,-0.566234177577,0.0799539061118
-5.54582413936,1.69074122185,1.63899471823,0.926919319956
-3.86553387086,-0.894613394983,0.154223614037,-5.8561152662
-16.0552436024,-5.64996801181,-2.18054749016,-12.4191498524
-9.89495333387,-6.47532262864,-3.63531859435,-10.5621844385
-10.2246630654,-9.69067724547,-5.03008969854,-12.1852190247
-12.8043727969,-5.3960318623,-2.44486080274,-7.89825361083
-23.1440825284,-13.8613864791,-5.04963190693,-13.071288197
-11.4937922599,-14.796741096,-4.96440301112,-16.3043227831
-6.8535019914,-6.58209571278,-2.73917411532,-11.2073573693
-6.9532117229,-8.92745032961,-3.43394521951,-8.09039195545
-1.58292145441,-7.20280494644,-1.0087163237,-7.02342654161
2.73736881409,-5.16815956327,-1.1234874279,-2.20646112776
-0.312340917422,2.6664858199,-1.08825853209,1.36050428608
4.76794935107,5.73113120307,0.286970363716,6.87746969993
3.50823961957,-4.14422341375,0.282199259523,1.70443511377
14.9385298881,-0.319578030583,0.55742815533,4.02140052761
-1.46117984344,-3.64493264741,-0.447342948864,-2.40163405854
-0.240889574947,-3.77028726424,-1.42211405306,-1.5846686447
1.93940069355,1.17435811893,-0.37688515725,5.47229676914
1.51969096204,2.4490035021,-2.37165626144,7.08926218299
-4.46001876946,2.74364888527,-4.03642736564,4.93622759683
6.10027149903,1.91829426845,-1.61119846983,6.83319301068
-0.549438232472,-0.43706034838,-1.79596957402,3.83015842452
3.75085203602,-0.0124149652111,-3.25074067822,4.35712383836
-1.60885769548,-1.56776958204,-1.13551178241,3.02408925221
7.64143257301,0.0468758011302,-0.990282886604,1.21105466605
3.15172284151,3.5615211843,-1.0650539908,3.16802007989
0.77201311,2.77616656747,-1.26982509499,0.0949854937371
5.63230337849,10.2708119506,1.04540380082,3.51195090758
9.08259364699,4.50545733382,-0.999367303378,10.0289163214
10.9928839155,11.960102717,2.25586159243,16.3858817353
15.723174184,14.6447481002,2.36109048824,16.2728471491
20.5134644525,14.3093934833,0.366319384043,16.859812563
13.593754721,4.8140388665,-1.60845172015,8.8567779768
12.6640449895,3.58868424968,-0.213222824344,2.69374339064
11.844335258,6.48332963285,-2.87799392854,7.00070880449
17.1346255265,5.45797501602,-1.16276503273,3.17767421833
7.08491579495,0.0726203991908,-1.25753613692,-1.66536036783
9.28520606344,3.38726578236,-1.33230724112,-0.618394953981
5.04549633194,0.871911165534,-2.28707834531,-1.81142954014
0.045786600429,-2.1434434513,-4.2318494495,-0.434464126294
-0.473923131074,-6.33879806813,-5.0066205537,-4.77749871245
0.876367137418,-5.28415268495,-3.96139165789,-6.67053329861
-6.20334259409,-1.16950730178,-4.36616276208,-4.30356788476
1.22694767441,-6.32486191861,-5.05093386628,-6.25660247092
-1.14588299418,-28.2683539244,-6.13979651163,-10.1704396802
3.29002781085,-19.1160754669,-4.99995596617,-5.18469087622
5.51593861587,-13.2637970095,-2.06011542071,-0.288942072197
6.0418494209,-4.741518552,0.439725124746,6.28680673182
10.5077602259,-6.42924009453,-1.0604343298,5.41255553584
10.563671031,-2.72696163706,-0.500593784336,7.26830433986
6.21958183598,-3.47468317959,-0.240753238878,7.09405314388
9.355492641,-7.59240472212,-4.26091269342,5.3498019479
3.14140344603,-8.23012626464,-4.96107214796,4.81555075192
4.89731425106,-3.00784780717,-1.1212316025,7.19129955594
2.94322505608,2.5044306503,-0.961391057042,11.63704836
5.87913586111,-6.80329089223,-1.86155051158,5.36279716398
12.3950466661,-1.36101243476,3.22829003388,10.008545968
14.1109574712,-9.30873397729,-4.62186942067,8.75429477202
2.05686827619,-2.58645551982,-1.91202887521,9.52004357604
6.51277908121,-12.4141770623,-2.19218832975,5.05579238006
7.05868988624,-4.49189860488,0.69765221571,6.80154118408
2.35460069127,-4.4996201474,1.44749276117,4.0472899881
2.30051149629,-6.27734168994,1.66733330663,3.65303879212
-3.60357769868,-2.21506323246,3.22717385209,5.25878759613
-0.307666893652,-7.63278477499,0.657014397545,-0.0354635998465
0.648243911372,-7.47050631752,-4.463145057,-3.94971479583
1.1041547164,-4.05822786005,-2.14330451154,-4.72396599181
-5.87993447857,-4.73594940258,-0.933463966078,-5.81821718779
-4.88402367355,2.20632905489,-0.36362342062,-0.272468383768
1.19188713148,-6.68139248764,2.69621712484,-4.18671957975
-13.3022020635,-0.859114030169,2.4460576703,-3.11097077573
0.0937087415296,2.5731644273,0.925898215756,0.19477802829
-0.22038045344,0.485442884776,-1.55426123878,-1.18947316769
4.99553035159,7.35772134225,0.335579306674,1.09627563633
3.35144115661,1.75999979972,2.34541985213,-2.83797555965
1.66735196164,7.50227825719,3.64526039759,-3.57222675563
-6.31673723334,2.43455671466,0.335100943051,-6.87647795161
-2.42082642831,7.47683517213,1.91494148851,-6.25072914759
-14.0949156233,3.1091136296,3.56478203397,-8.57498034357
-14.3690048183,10.4713920871,6.78462257943,-4.34923153955
-13.6930940132,6.48367054455,5.39446312489,-3.18348273553
-3.7271832082,7.77594900201,3.98430367034,-4.47773393152
-7.20127240318,2.17822745949,2.9941442158,-6.13198512749
-13.7653615982,8.22050591696,2.88398476126,-4.56623632348
-10.0194507931,6.53278437443,2.07382530672,-6.78048751946
-6.8735399881,5.0950628319,0.613665852179,-5.61473871544
-10.1076291831,6.46734128937,0.703506397638,-2.49898991142
-9.82171837805,6.03961974684,1.2133469431,-4.9332411074
-9.47580757302,6.54189820431,-1.40681251144,-4.46749230338
-10.599896768,4.83417666179,0.243028034014,-4.24174349936
-11.033985963,6.13645511926,2.99286857947,-2.54599469534
-5.74807515794,10.7387335767,3.37270912493,-1.53024589132
-10.7421643529,2.4710120342,-0.257450329609,-3.7444970873
-3.95625354789,7.11329049167,2.89239021585,2.16125171672
-7.74034274286,9.56556894914,3.74223076131,2.35700052074
-9.06443193783,5.12784740661,1.99207130677,-0.297250675241
-0.58852113281,2.19012586408,0.671911852225,1.26849812878
-1.13261032778,1.42240432155,-1.38824760232,1.3542469328
-2.99669952276,-1.18531722097,-1.56840705686,-1.30000426318
-10.4207887177,-2.44303876351,-2.0885665114,-6.86425545916
-5.9448779127,6.39923969396,-1.23872596594,-5.58850665514
-3.13896710768,2.52151815144,-0.108885420481,-5.94275785112
-7.25305630265,-1.42620339109,-2.02904487502,-6.87700904711
-3.37714549762,3.66607506638,-1.47920432956,-3.28126024309
-3.5412346926,2.77835352385,0.850636215895,-0.905511439067
0.854676112431,-1.40936801868,-2.05952323865,0.0802373649531
5.40058691745,3.4729104388,-2.46968269319,-0.414013831029
12.6764977225,2.36518889626,-3.65984214773,-0.148265027008
13.7824085275,2.55746735373,-2.50000160227,-1.19251622299
17.7783193325,6.3497458112,-0.580161056811,1.04323258103
8.82423013756,13.3820242687,3.50967948865,6.11898138505
8.86014094259,14.6243027261,2.94952003411,6.36473018907
14.6460517476,0.62658118362,-2.57063942043,-0.379521006909
12.5119625526,5.34885964109,-0.390798874975,0.91622779711
9.21787335767,4.58113809856,0.709041670483,-3.90802339887
1.40378416269,7.54341655603,2.15888221594,-0.352274594852
7.04969496772,4.4056950135,0.858722761401,-2.38652579083
9.34560577275,2.26797347097,0.0485633068602,-4.22077698681
7.61151657777,4.00025192845,-0.801596147682,-2.45502818279
-3.7725726172,0.282530385917,-0.321755602223,-2.84927937877
-9.34666181217,1.43480884339,0.668084943236,-3.27353057476
0.319248992851,13.9670873009,1.81792548869,1.51221822927
1.76515979788,2.88936575833,0.477766034153,-3.31203296672
-5.1089293971,3.3516442158,-0.772393420389,-3.1362841627
-3.03301859207,4.32392267327,-3.30255287493,-0.880535358678
-8.25710778705,3.32620113074,-1.03271232947,-2.70478655466
-1.80119698202,2.04847958821,-0.962871784011,-7.32903775064
-4.60528617699,9.61075804568,-2.06303123855,-1.92328894662
2.15062462804,4.24303650316,0.566809306906,-0.8475401426
-7.64346456694,1.70531496063,1.95664985236,-4.67179133858
-4.36755376191,7.5675934181,2.59649039782,0.493957465442
-3.41164295689,7.86987187557,-0.193669056718,0.13970626946
2.56426784814,7.41215033304,-1.78382851126,3.82545507348
1.59017865317,-4.23557120949,-3.1339879658,-0.818796122501
0.826089458194,3.54670724798,-2.55414742034,0.766952681519
-1.34799973678,-3.14101429455,-5.73430687488,-1.41729851446
-9.12208893175,-7.48873583707,-5.53446632942,-4.45154971044
-4.76617812673,-2.64645737961,-3.61462578397,-2.84580090642
-2.0102673217,-0.444178922135,-1.73478523851,-0.610052102404
-5.10435651668,-0.761900464662,0.675055306952,-0.564303298384
-0.838445711644,6.66037799281,0.894895852412,4.20144550563
3.61746509338,2.50265645028,-0.695263602131,5.07719430965
1.6033758984,3.94493490775,0.484576943329,5.07294311367
5.02928670343,9.15721336522,2.33441748879,8.91869191769
5.46519750846,2.08949182269,2.22425803425,6.86444072171
1.30110831348,0.241770280161,3.4440985797,3.16018952573
5.87701911851,4.41404873764,3.22393912516,7.40593832975
0.452929923536,5.2063271951,4.51377967062,6.71168713377
2.23884072856,2.98860565258,3.08362021608,2.84743593779
0.77475153359,-0.219115889951,2.89346076154,2.29318474181
-3.54933766138,2.52316256752,3.813301307,4.05893354583
-0.143426856357,1.01544102499,4.43314185246,3.19468234985
2.96248394867,2.24771948246,4.09298239792,5.07043115387
1.33839475369,5.27999793993,3.58282294337,7.03617995789
9.37430555872,-0.427723602596,0.202663488833,5.99192876191
6.26021636375,-6.18544514513,-1.38749596571,2.76767756593
8.50612716877,-1.99316668765,1.89234457975,2.79342636995
6.6920379738,6.29911176982,4.39218512521,7.33917517397
4.01794877883,-12.3586097727,-2.64797432933,-2.83507602201
3.38385958385,-15.8963313152,-3.47813378387,-5.219327218
1.62977038888,-16.2940528578,-3.19829323841,-3.85357841397
9.98568119391,-14.9817744003,-4.75845269295,0.0521703900431
4.81159199894,-3.36949594283,-0.828612147497,4.07791919406
0.347502803957,-2.23721748536,0.641228397963,5.80366799808
2.15341360898,-10.7449390279,-1.59893105658,-0.920583197898
-0.740675585988,-7.87266057041,0.25090948888,0.105165606121
-3.81476478096,-11.3603821129,1.17075003434,-3.23908558986
-6.74885397594,-8.62810365548,0.490590579798,-3.10333678584
-4.79294317091,-11.655825198,-1.91956887474,-1.42758798182
0.402967634116,-12.0235467405,-3.77972832928,-0.8718391778
-4.48112156086,-16.1212682831,-6.23988778383,-4.35609037378
-8.28521075583,-12.0589898256,-3.81004723837,-3.97034156976
-5.00924055232,10.3631577035,-4.16210755814,-4.75159520349
-7.30311939205,6.22203268061,-3.88388047061,-5.22712864517
-8.10699823177,9.10090765772,-2.40565338308,-4.00266208685
-12.4808770715,0.669782634825,-2.95742629555,-12.1181955285
-9.63475591123,7.39865761194,0.120800791977,-5.3537289702
-2.91863475096,15.857532589,0.679027879507,0.36073758812
-4.83251359068,10.4064075662,-1.36274503296,-1.29479585356
0.693607569592,5.61528254327,-2.34451794543,-2.84032929524
2.62972872986,6.45415752038,-2.0262908579,-1.90586273691
-3.13415010987,12.8630324975,-1.14806377037,1.47860382141
2.55197105041,5.1019074746,-3.54983668285,-5.40692962027
-6.91190778932,4.72078245171,-1.51160959531,-5.23246306194
-1.31578662905,2.63965742882,-1.03338250778,-3.98799650362
-3.94966546877,5.42853240593,-0.065155420255,-2.2735299453
-2.8635443085,1.99740738304,-2.15692833272,-1.33906338697
-6.12742314823,4.11628236015,-0.318701245195,-1.47459682865
-5.71130198795,3.01515733726,2.02952584233,-3.76013027033
-10.6451808277,-2.88596768563,2.44775292986,-3.52566371201
-2.27905966741,-0.187092708515,2.78598001739,-0.641197153685
-5.13293850714,8.54178226859,2.77420710492,6.30326940464
2.34318265314,9.25065724571,0.872434192454,8.75773596296
-0.670696186589,1.42953222281,-1.77933872002,-0.237797478716
0.505424973682,1.64840719993,-0.271111632487,-0.333330920394
-4.22845386605,-0.372717822967,-2.85288454496,-0.87886436207
-8.51233270577,-6.01384284586,-1.75465745743,-6.08439780375
1.6637884545,-2.28496786875,-1.4164303699,-6.26993124543
-1.19009038523,-6.06609289163,-1.93820328237,-6.6554646871
-3.50396922496,-3.80721791452,-0.409976194838,-2.42099812878
0.912151935321,-6.65834293742,-2.57174910731,-6.13653157046
-3.44172690441,-10.9994679603,-3.66352201978,-6.58206501213
-1.71560574414,-6.6205929832,-1.73529493225,-6.00759845381
-8.62948458386,-15.4817180061,-2.99706784472,-12.1431318955
-3.66336342359,-19.662843029,-1.62884075719,-12.2786653372
-5.46724226332,-14.3539680519,-0.62061366966,-9.87419877884
-2.24112110304,-15.6950930748,-0.182386582129,-8.44973222052
7.51500005723,-12.2562180976,-2.7041594946,-6.2652656622
13.0211212175,-12.8673431205,-3.54593240707,-6.11079910388
8.53724237777,-14.6584681434,-3.76770531954,-9.22633254555
5.72336353805,-8.40959316631,-0.22947823201,-5.11186598723
0.63948469832,-3.1807181892,-0.111251144481,-1.65739942891
2.25560585859,-12.5118432121,-1.59302405695,-5.68293287058
1.50172701887,-14.252968235,-1.92479696942,-9.48846631226
-1.77215182086,-9.21409325787,-1.29656988189,-5.94399975394
0.153969339408,-10.0452182808,-2.22834279436,-5.33953319562
-4.77990950032,-10.3563433036,-4.74011570683,-5.17506663729
-2.15378834005,-11.0574683265,-3.1918886193,-5.04060007897
5.21233282023,-11.1585933494,-1.73366153177,-3.25613352065
-3.1915460195,-8.18971837232,-0.635434444242,-2.62166696232
3.32457514077,-2.87084339521,0.422792643287,-0.927200404001
8.90069630105,-2.9219684181,0.0510197308167,3.80726615432
16.3068174613,-1.99309344099,-0.340753181653,4.88173271264
13.7829386216,5.00578153613,1.16747390588,9.20619927097
5.29905978186,1.64465651323,-0.0842990065939,7.91066582929
10.5151809421,-4.34646850966,-2.06607191906,2.62513238761
8.09130210241,-1.73759353254,-1.04784483153,3.48959894593
11.6074232627,-0.898718555436,-2.939617744,7.80406550426
16.193544423,1.98015642168,0.368609343525,7.29853206258
10.6596655832,1.99903139879,5.02683643106,8.2629986209
6.3557867435,-7.1520936241,2.77506351859,4.71746517922
11.3719079038,2.25678135301,4.59329060612,8.71193173755
22.438029064,6.83565633012,2.92151769365,11.8863982959
9.59415022432,1.30453130723,2.10974478117,6.00086485419
2.83027138459,-5.06659371566,2.4679718687,4.72533141252
8.42639254486,-6.05771873855,1.11619895623,5.42979797084
5.10251370514,-1.31884376144,2.59442604376,3.90426452916
1.93863486541,-2.50996878433,1.55265313129,4.11873108748
-2.88524397432,0.18890619278,2.74088021882,6.60319764581
4.64087718595,-3.15221883011,1.76910730635,5.22766420413
-6.57300165377,-0.0733438530006,3.24733439388,4.19213076245
-9.3368804935,-4.52446887589,0.955561481413,2.35659732078
-5.53075933323,-3.59559389878,-1.18621143106,4.3910638791
-0.584638172957,2.62328107833,2.49201565647,7.12553043742
-3.97851701268,-0.467843944556,4.280242744,9.46999699574
2.17760414759,-0.428968967448,3.61846983153,7.63446355407
-6.37627469214,4.20990600967,3.42669691906,8.78893011239
-5.16015353187,5.00878098677,3.03492400659,9.52339667071
-2.24403237159,6.38765596388,4.73315109412,11.817863229
3.37208878868,5.84653094099,5.46137818165,13.5823297874
4.40820994895,8.9054059181,5.72960526918,15.8967963457
7.12433110923,10.7342808952,5.49783235671,17.231262904
6.1204522695,12.6731558723,10.0160594442,15.1457294623
-0.663426570231,6.88203084944,10.2042865318,10.1101960206
-4.18730540996,6.96090582655,7.5325136193,12.744662579
-1.43118424968,9.03978080366,7.44074070683,14.1091291373
0.654936910592,10.3986557808,7.42896779436,14.0135956956
2.50105807086,17.4575307579,8.26719488189,16.1480622539
5.70717923114,14.546405735,7.24542196942,14.3125288123
-2.02669960859,11.8352807121,6.49364905695,8.73699537058
4.46942155168,9.61415568921,3.75187614448,9.87146192891
2.48554271195,7.06303066632,3.64010323201,11.8159284872
-5.37833612777,6.27190564343,5.27833031954,5.10039504555
-3.5522149675,8.03078062054,5.19655740707,6.48486160388
-7.48609380723,7.68965559765,3.3247844946,8.0893281622
6.76002735304,7.57853057476,0.673011582127,8.50379472052
1.56614851332,11.0374055519,3.68123866966,8.83826127884
2.93226967359,13.306280529,4.73946575719,11.1727278372
-0.361609166139,7.09515550609,1.96769284472,6.94719439549
-1.11548800586,6.9340304832,0.725919932246,7.68166095381
4.21063315441,5.94290546031,0.574147019776,9.37612751214
-0.763245685321,1.24178043742,-0.217625892694,0.430594070458
2.86287547496,2.67065541453,-0.839398805165,0.355060628781
6.21899663523,4.87953039164,0.868828282365,3.0095271871
6.2551177955,-0.0915946312489,0.377055369895,4.36399374542
5.46123895577,1.35728034587,0.615282457426,6.21846030375
16.367360116,1.34615532297,-0.856490455045,3.30292686207
-4.04651872368,0.475030300084,-1.29826336751,-0.722606579608
-4.53039756341,-0.766094722807,-2.16003627999,0.181859978715
1.91572359686,-1.7472197457,-2.75180919246,-0.55367346296
6.39184475714,0.481655231419,-2.10358210493,-1.78920690464
-2.85203408259,-2.76946979147,-3.9053550174,-4.18474034631
7.54408707768,-4.63059481436,-4.52712792987,-5.11027378799
6.91020823795,-2.35171983725,-2.27890084234,-4.26580722967
2.26632939823,-2.78284486014,-1.34067375481,-4.78134067135
-5.8675494415,-1.73396988303,-1.62244666728,-6.31687411302
-8.09142828123,-1.00509490592,-0.514219579747,-9.2024075547
-8.32530712095,0.193780071186,-2.78599249222,-8.21794099638
-6.08918596069,-7.2273449517,-6.46776540469,-15.0234744381
-7.46306480041,-7.96846997459,-3.86953831716,-15.5390078797
-1.37694364014,-8.30959499748,-5.16131122963,-14.9245413214
-16.9208224799,-5.37072002037,-6.7130841421,-13.7900747631
-9.56470131959,-5.53184504326,-6.68485705457,-13.8856082048
-9.37858015932,-1.86297006615,-4.44662996704,-13.4011416464
-16.302458999,-4.95409508904,-4.27840287951,-17.9666750881
-7.92633783878,-7.68522011193,-6.35017579198,-21.2122085298
-9.9802166785,-7.64634513482,-6.95194870445,-20.1177419715
-8.22409551823,-4.25747015771,-8.19372161692,-18.4432754132
0.00202564204665,-7.0585951806,-6.75549452939,-16.9388088548
0.168146802316,-6.65972020349,-4.71726744186,-14.8643422965
-6.66206395348,-0.805323401153,-1.51784520349,-0.40151162791
-13.1707691471,-3.08762022752,-2.65102628297,-0.876313118022
-7.29947434077,-1.97991705388,-3.21420736244,0.238885391867
1.95182046559,-2.85221388024,-0.62738844191,-3.94591609824
-6.94688472806,-7.0545107066,-0.0805695213821,-7.17071758836
-9.29558992171,-4.17680753295,2.30624939914,-5.15551907847
-11.8842951154,-1.60910435932,3.43306831967,-4.94032056858
-4.673000309,4.58859881433,1.4998872402,-1.81512205869
-2.06170550265,-2.97369801204,1.09670616073,-4.2099235488
-2.37041069629,-1.29599483839,0.703525081255,-3.45472503892
18.9908841101,-3.39829166475,-1.46965599822,-2.02952652903
-7.02782108358,-7.07058849111,-4.58283707769,-10.2543280191
-7.76652627723,-2.96288531747,-4.95601815716,-8.91912950925
-6.49523147088,-1.75518214383,-2.07919923664,-8.92393099936
-0.393936664525,-3.43747897019,-0.652380316108,-5.18873248947
-0.622641858168,-2.31977579655,0.114438604419,-2.42353397959
-1.31134705181,-2.30207262291,0.401257524947,-3.9283354697
-4.87005224546,2.48563055073,3.09807644547,-2.85313695981
-3.30875743911,-0.29666627563,1.234895366,-1.53793844992
4.18253736725,-0.178963101993,0.571714286529,-0.982739940031
-15.4261678264,-1.52125992835,-1.06146679294,-4.80754143014
-2.06487302004,1.13644324529,-0.0246478724157,-0.342342920254
-9.08357821369,1.95414641893,-0.0278289518883,-1.52714441037
-3.85228340734,1.30184959257,1.09898996864,0.188054099521
4.72901139902,-0.420447233791,-0.744191110834,0.36325260941
2.80030620537,1.00725593985,-2.08737219031,3.7284511193
6.77160101173,3.55495911349,0.989446730221,8.37364962919
7.87289581808,3.97266228713,0.146265650748,6.09884813908
1.65419062443,2.23036546077,-1.35691542872,3.58404664896
3.90548543079,0.618068634409,-2.0100965082,-1.00075484115
8.55678023714,0.665771808053,-5.10327758767,-2.16555633126
2.73807504349,-3.06652501831,-5.31645866714,-1.10035782137
-0.230630150152,-0.65882184467,-3.73963974661,0.594840688518
9.89066465621,0.318881328974,-4.21282082609,4.73003919841
2.00195946256,3.22658450261,-1.31600190556,7.69523770829
8.39325426891,-0.285712323748,0.100817014968,4.03043621818
4.58454907527,0.271990849895,-1.2023640645,2.10563472807
10.1058438816,3.01969402353,-0.585545143977,6.50083323796
8.73713868797,2.02739719717,-1.97872622345,3.97603174785
-3.80156650567,-2.59489962919,-3.17190730292,-2.01876974226
-0.430271699319,3.16280354445,-0.785088382395,2.91642876762
-0.678976892963,1.8705067181,-0.368269461867,2.84162727751
11.5923179134,6.17820989173,2.74854945866,4.2268257874
3.41361271974,5.01591306537,2.00536837919,5.39202429729
8.1849075261,-4.90638376099,-1.93781270029,-0.892777192821
7.31620233245,-10.6386805873,-4.23099377976,-4.63757868293
12.3874971388,-6.4109774137,-3.49417485923,-2.42238017305
-2.48120805484,1.20672575993,-2.3173559387,-0.597181663157
3.80008675151,-0.765571066426,-2.80053701818,-1.71198315327
11.7813815579,1.29213210721,-0.973718097648,4.18321535662
6.72267636422,3.94983528086,1.27310082288,6.32841386651
-3.15602882942,5.2875384545,3.00991974341,1.7836123764
-0.654734023068,-0.254758371866,1.12673866393,-0.881189113716
-4.57343921671,2.55294480178,2.05355758446,1.82400939617
7.58785558964,5.17064797542,2.58037650499,8.78920790606
15.319150396,6.14835114906,2.72719542552,13.1444064159
6.98044520235,6.3060543227,3.19401434604,11.2596049258
0.221740008703,6.23375749633,3.07083326657,9.80480343573
3.35303481506,7.53146066998,4.0276521871,10.8800019456
7.77432962141,5.68916384362,4.03447110763,8.1652004555
5.20562442776,4.14686701726,4.38129002815,0.520398965391
0.346919234114,4.6345701909,3.21810894868,-1.20440252472
-2.18178595953,1.19227336454,0.474927869207,-1.85920401483
2.55950884683,-0.370023461823,1.36174678973,-0.0740055049428
1.59080365318,-0.49232028818,0.798565710263,0.441193004946
6.73209845953,1.58538288546,2.55538463079,5.91639151483
4.07339326588,3.7130860591,5.56220355132,9.80159002472
-2.72531192776,3.44078923274,3.33902247184,3.24678853461
-10.8440171214,0.888492406379,2.99584139237,-3.4180129555
-4.94272231505,-0.903804419981,0.8926603129,-1.66281444561
1.1385724913,-0.926101246339,1.34947923343,-1.65761593572
-5.42013270234,-0.6183980727,2.21629815395,-0.842417425836
-9.07883789599,1.01930510094,0.283117074481,2.49278108405
0.612456910363,-1.42299172542,2.16993599501,3.68797959394
3.20375171672,-1.76528855178,3.39675491554,4.45317810383
7.58504652307,2.99241462186,3.14357383606,7.54837661372
0.516341329429,-1.6298822045,1.95039275659,1.0035751236
-11.6923638642,-3.13217903086,2.58721167712,-1.28122636651
-9.16106905787,-4.87447585722,0.274030597647,-3.38602785662
-7.57977425151,-7.49677268358,1.03084951817,-4.62082934673
-10.0184794452,-2.01906950994,5.0676684387,0.784369163159
1.1128153612,0.118633663704,3.33448735923,5.31956767305
15.7741101675,0.296336837346,-1.80869372024,3.41476618294
-1.2645950261,-1.42595998902,-1.93187479972,2.98996469282
3.13669978026,-2.54825681537,-2.27505587919,-2.51483679729
-8.42200541339,-0.290553641738,-1.09823695866,-4.5496382874
0.269289392963,0.577149531902,0.138581961865,-0.664439777511
1.97058419932,-0.475147294455,1.60540088239,-1.45924126762
-6.54812099432,-0.567444120818,1.64221980292,-1.50404275774
0.0431738120278,-4.83974094718,2.63903872345,-4.60884424784
-6.24553138162,-0.752037773535,3.21585764398,-3.61364573796
9.31576342474,3.4256654001,2.4426765645,1.03155277193
-17.2629417689,2.04336857374,-0.44050451497,-2.10324871818
-5.26164696255,-0.088928252615,-2.84368559444,-5.74805020829
-2.2703521562,1.74877492103,0.703133326085,-5.2828516984
-4.61905734985,4.44647809467,2.98995224661,-3.00765318852
-1.1077625435,2.1641812683,0.23677116714,-3.94245467863
-4.17646773714,4.17188444195,-0.266409912332,-2.65725616874
-4.82517293079,4.37958761559,2.83040900819,-0.932057658849
-3.01387812443,1.62729078923,3.98722792872,-1.67685914896
-6.62258331808,3.85499396287,4.51404684925,-2.89166063907
-9.37128851172,2.2026971365,2.52086576978,-1.74646212919
15.8200062946,3.20040031015,0.897684690304,-0.0312636192975
-18.718698899,-4.84189651621,-0.355496389168,-10.9460651094
-9.44740409266,-2.74419334257,1.02132253136,-4.96086659952
1.73389071369,-1.07649016893,-1.54185854811,-2.56566808963
1.19518552005,-0.868786995292,-3.64503962759,1.42953042026
-1.2235196736,3.94891617835,-1.93822070706,6.02472893014
11.8477751328,0.666619351985,-0.271401786531,5.95992744003
13.3190699391,-4.43567747437,-1.724582866,-1.06487405008
-0.96963525454,-2.71797430073,-3.70776394548,-2.06967554019
10.3916595518,-1.04027112709,-4.47094502495,-0.604477030301
-3.55704564183,-1.98256795345,-2.56412610442,-3.03927852041
-6.29575083547,-0.444864779809,-1.02730718389,0.995919989475
4.32554397088,-2.74716160617,-1.03048826337,-0.568881500636
0.43683877723,-2.92945843253,-0.973669342839,-0.613682990748
-0.331866416414,-2.37175525889,-2.01685042231,-0.418484480861
2.23942838994,-0.894052085248,-4.26003150178,0.406714029028
-6.8392768037,-7.58634891161,-6.61321258126,-6.01808746108
5.96201800265,-5.84864573797,-2.46639366073,-3.09288895119
4.553312809,-2.31094256433,-2.1095747402,-0.747690441305
-1.90539238464,-0.303239390691,-0.872755819674,1.30750806858
0.635902421709,-1.26553621705,-0.815936899147,-2.96729342153
-5.42280277193,-0.217833043407,-0.0391179786202,-1.14209491164
3.29849203442,-2.32012986977,-1.32229905809,-2.12689640175
3.24978684077,-1.23242669613,-0.925480137565,-2.17169789186
-1.01891835287,1.35527647751,-1.55866121704,3.16350061802
-5.51762354652,4.08297965115,-2.82184229651,1.48869912791
-5.45714389534,-8.49348837209,-3.93599200582,-4.95824491279
-2.24980698361,-8.31000208867,-0.0491026139935,-2.50314459921
0.307529928134,-11.0665158053,-0.0022132221693,-6.62804428562
-24.4851331601,-7.09302952183,1.25467616965,-6.22294397203
-17.7477962484,-10.4595432384,-1.64843443852,-6.72784365845
-2.27045933666,-11.406056955,-2.3415450467,-6.41274334486
-4.87312242492,-8.76257067157,-1.08465565487,-3.89764303127
-15.2057855132,-6.01908438816,-2.19776626305,-1.13254271768
-3.66844860144,-7.84559810474,-3.16087687123,-2.8174424041
-5.53111168971,-2.33211182132,-1.4639874794,0.0676579094907
-8.04377477797,1.7213744621,-0.587098087578,2.02275822308
-3.02643786623,-3.85513925448,-0.0702086957544,-4.32214146333
10.7308990455,-2.12165297106,0.84668069607,-1.51704114975
-1.61176404275,0.261833312357,2.75357008789,-0.98194083616
1.39557286898,7.78531959577,2.89045947972,5.60315947743
5.54290978072,10.5488058792,3.53734887154,11.988259791
8.12024669246,3.00229216261,0.944238263365,3.7133601046
-5.7024163958,1.84577844603,-0.728872344811,-1.30153958181
9.46492051593,2.50926472945,-0.121982952987,3.45356073178
8.47225742767,-3.04724898713,-3.60509356116,-3.56133895464
-18.7604056606,-5.02376270371,-4.45820416934,-6.23623864105
-8.06306874885,-5.3002764203,-3.69131477752,-6.19113832746
2.65426816288,-5.33679013688,-2.59442538569,-5.57603801387
3.09160507462,-0.493303853458,-0.807535993868,-0.860937700287
4.26894198636,2.67018242996,0.0493533979552,1.8141626133
-4.2137211019,0.00366871337974,-1.04375721022,-3.75073707311
-0.246384190163,3.4371549968,3.0031321816,6.47436324047
24.8209527216,-1.26935871978,0.0100215734283,0.329463554062
-0.0917103666907,3.83412756363,0.996910965251,4.61456386765
-4.43437345495,5.87761384706,2.49380035708,7.26966418124
-2.72703654322,2.56110013047,0.550689748899,2.29476449482
13.9103003685,2.88458641389,0.977579140723,0.879864808412
-5.92236271974,4.19807269731,2.41446853255,1.344965122
10.164974192,1.19155898073,0.0713579243711,-2.45993456441
14.7723111037,6.96504526415,-0.0617526838059,2.76516574917
7.58964801547,10.3085315476,2.37513670802,9.13026606276
6.93698492721,5.60201783099,2.75202609984,8.90536637635
22.9743218389,3.1155041144,2.10891549167,2.10046668993
9.62165875069,6.18899039783,2.58580488349,6.72556700352
16.5789956624,7.94247668124,2.27269427531,8.21066731711
25.1363325742,6.16596296466,1.35958366714,5.4857676307
-8.7863305141,1.61944924808,1.82647305896,1.97086794428
7.14100639764,-0.627064468503,-0.0266375492147,1.47596825787
12.0683433094,1.88642181492,-0.44974815739,1.64106857146
4.59568022111,3.92990809834,1.27714123443,6.73616888505
8.87301713285,0.0533943817572,-0.555969373742,1.61126919863
-6.17964595541,0.446880665171,1.23092001808,2.25636951222
10.9976909563,6.40036694859,4.9678094099,5.64146982581
-5.77497213194,1.12385323201,0.434698801729,-0.843429860606
0.252364779801,3.78733951543,-0.528411806447,3.44167045298
-21.2602983085,4.67082579885,-0.631522414623,3.41677076657
8.65703860328,-0.385687917733,1.2453669772,3.41187108016
0.774375515015,3.89779836569,1.25225636902,5.39697139374
-4.12828757325,3.4312846491,1.53914576085,3.42207170733
16.7590493385,7.44477093252,2.66603515267,4.98717202092
2.87638625023,9.40825721594,3.4929245445,6.54227233451
-4.60627683804,7.56174349936,4.33981393632,7.20737264809
11.6810600737,10.1652297828,3.71670332814,8.54247296168
8.44839698544,7.8287160662,2.15359271997,2.96757327527
-5.88426610282,12.2022023496,3.12048211179,4.73267358885
-4.86692919108,7.00568863303,0.487371503616,8.34777390244
-4.04959227935,1.26917491645,-0.695739104561,3.04287421603
-5.31225536761,-1.97733880013,-0.468849712736,0.127974529618
-6.82491845587,-3.57385251671,-1.63196032091,-2.8669251568
1.97241845587,-3.03036623329,-0.82507092909,-3.97182484321
-14.7302446324,1.29312005013,1.34181846273,0.433275470377
-13.8229077207,-1.06339366645,0.988707854559,-3.31162421603
2.77442919108,-1.08990738303,-0.234402753617,-3.55652390245
9.29176610282,0.663578900381,-1.44751336179,-0.12142358886
-7.84089698545,3.2470651838,0.389376030031,-0.826323275272
-0.213560073706,1.31055146722,0.396265421855,-2.32122296169
-10.796223162,-0.71596224936,-1.90684518632,-1.2761226481
-12.7988862502,-0.302475965942,-0.499955794498,-2.49102233451
5.1884506615,-3.00898968252,-0.623066402673,-3.32592202092
-14.6242124268,-2.7155033991,-1.96617701085,-3.82082170734
-7.45687551502,-1.65201711568,-3.36928761903,-4.31572139375
0.820461396717,-3.04853083226,-2.1423982272,-6.05062108016
-5.64220169154,0.00495545115336,-2.83550883538,-3.77552076657
-1.85486477981,3.05844173457,-1.55861944355,-0.330420452987
2.26247213193,2.62192801799,-1.17173005173,-6.1753201394
-3.55019095633,1.51541430141,-0.794840659906,-5.60021982581
1.3971459554,-4.88109941517,-3.37795126808,-8.77511951222
-6.65551713285,0.892386868243,-0.321061876259,-2.55001919864
3.59181977888,3.40587315167,1.51582751557,1.80508111495
-17.3208433094,0.799359435085,0.582716907388,-2.86981857146
-1.41350639764,2.6028457185,1.09960629921,-4.26471825788
8.36383051409,-1.14366799808,0.336495691036,-6.18961794429
-6.32883257417,-4.79018171466,-2.54661491714,-9.7745176307
-1.20149566243,-3.90669543124,-3.31972552532,-8.81941731711
-12.4541587507,-7.47320914783,-3.92283613349,-9.20431700353
-10.696821839,-9.9897228644,-5.75594674167,-12.6292166899
2.66051507278,-8.94623658098,-5.07905734984,-10.4841163764
-0.61214801548,-6.74275029757,-1.41216795802,-4.34901606276
2.81518889626,-8.29926401415,-1.7652785662,-7.14391574918
-3.477474192,-2.99577773073,-1.24838917437,-1.78881543559
0.629862719736,-2.57229144731,-1.56149978255,-1.033715122
0.567199631474,-8.57880516389,-3.66461039072,-11.5186148084
4.36453654321,-5.36531888047,-2.5177209989,-4.01351449483
1.42187345495,-6.03183259705,-0.950831607077,-4.62841418124
28.2592103667,-2.52834631363,-0.503942215253,-3.89331386765
-7.85345272158,-2.25486003022,-2.04705282343,-5.65821355407
0.0238841901592,-2.8013737468,-2.02016343161,-1.15311324048
-2.7087788981,1.62211253662,0.956725960218,1.32198707311
5.05855801364,-0.364401179962,2.07361535204,-1.99291261331
-0.914105074629,-2.31091489654,2.03050474387,-0.367812299719
1.68323183711,-4.26742861313,1.98739413569,-1.73271198613
-8.93943125115,-12.6439423297,-0.465716472486,-9.38761167254
1.19790566059,-7.98045604629,-0.378827080663,-3.35251135896
0.825242572326,-6.35696976287,-1.62193768884,-3.22741104537
0.622579484061,-5.94348347945,-2.00504829701,-1.93231073178
8.6299163958,1.27000280397,-0.928158905191,6.55278958181
-2.40274669246,0.853489087389,1.41873048663,7.01788989539
-12.6954097807,3.70697537081,2.00561987846,6.47299020898
9.76192713101,4.25046165423,1.74250927028,8.23809052257
14.2192640427,8.06394793764,4.3093986621,9.61319083615
-6.12339904551,3.22743422107,-0.0637119460716,3.75829114974
12.6539378662,-3.35907949552,-2.16682255425,2.36339146333
-22.648725222,-2.2255932121,-0.529933162424,1.90849177692
-8.2613883103,2.58789307132,0.5169562294,8.6735920905
3.03594860144,3.40137935474,-0.456154378776,7.41869240409
10.2732855132,3.72486563816,1.11073501305,7.05379271768
8.20062242491,0.588351921575,2.22762440487,1.97889303127
4.90795933665,-1.07816179501,0.774513796696,-0.306006655146
2.43529624839,-0.774675511588,2.32140318852,4.80909365844
6.00263316013,2.69881077183,1.82829258034,5.42419397203
-16.8200299281,7.52229705525,0.715181972168,5.57929428562
-10.5726930164,5.89578333867,4.25207136399,3.5843945992
9.84464389534,2.44926962209,1.72896075582,-0.0405050872105
-17.4873858064,-4.07943096774,-0.276536774196,-2.86702322581
-15.6944490323,-4.39172582219,-0.033498410703,-5.8934288277
-0.761512258057,-0.214020676631,2.39953995279,5.43016557041
