-3.59397529069,-0.919829215116,-2.36986918605,-4.93663517442
-1.65182238257,-0.0527083810157,-2.25535722053,-2.5225272386
1.92033052556,1.64441245308,0.159154745004,2.11158069721
3.12248343368,2.69153328718,-0.0663332894692,2.40568863303
2.3846363418,4.34865412127,1.65817867606,5.17979656885
8.90678924992,4.70577495537,1.14269064159,7.28390450467
10.038942158,9.84289578946,0.987202607117,11.4680124405
7.22109506616,10.7400166236,2.40171457265,9.1321203763
6.97324797429,7.35713745765,2.69622653817,5.46622831212
7.3754008824,10.6642582918,2.4907385037,11.3903362479
6.49755379053,8.25137912585,0.525250469229,6.97444418376
7.24970669865,2.59849995995,-1.97023756524,0.338552119574
4.88185960677,3.06562079404,-1.34572559971,1.34266005539
5.34401251489,4.34274162814,0.668786365815,1.90676799121
8.02616542301,7.23986246223,0.753298331347,5.31087592703
8.34831833113,10.9269832963,1.91781029687,9.07498386284
9.44047123926,12.6041041304,4.5423222624,13.8790917987
10.3126241474,12.0212249645,4.35683422793,14.2631997345
3.8947770555,10.1683457986,3.00134619346,8.2073076703
5.43692996362,7.43546663272,3.04585815899,5.85141560611
7.79908287174,4.66258746681,0.590370124515,3.48552354193
5.47123577986,4.90970830091,-0.235117909957,6.56963147775
4.26338868798,2.496829135,0.279394055571,4.80373941357
6.7355415961,0.2839499691,0.953906021099,3.60784734939
3.69769450422,2.72107080319,1.39841798663,5.7519552852
5.09984741234,6.13819163729,1.20292995216,9.13606322102
8.40200032046,7.16531247138,0.937441917686,11.1501711568
5.49415322859,4.46243330549,0.571953883213,6.66427909266
5.35630613671,4.69955413958,2.58646584874,1.58838702847
6.91845904483,6.95667497368,4.09097781427,3.54249496429
4.12061195295,-2.51620419223,-0.534510220201,-0.273397099892
1.23276486107,-7.25908335813,-3.41999825467,-7.28928916407
-6.34508223081,-5.38196252404,-1.89548628914,-8.82518122826
-11.1129293227,-7.46484168994,-1.85097432361,-7.26107329244
-6.98077641457,-8.53772085585,-1.58646235809,-7.83696535662
-5.28862350644,-9.34060002175,-2.65195039256,-11.6528574208
-0.356470598326,-7.26347918765,-2.24743842703,-7.73874948499
-6.5243176902,-10.1263583536,-0.0529264615034,-6.86464154917
-8.85216478208,-8.98923751946,-0.698414495972,-9.12053361335
-12.570011874,-8.16211668536,-0.0539025304461,-10.6764256775
-10.9878589658,-11.4749958513,-1.05939056491,-11.6823177417
-5.77570605772,-9.63787501717,-2.24487859939,-8.7882098059
-6.0035531496,-8.32075418307,-0.32036663386,-8.65410187008
-11.2614002415,-7.09363334898,1.56414533167,-7.23999393426
-7.32924733336,-4.14651251488,2.2986572972,-4.01588599844
-6.30709442523,-0.699391680784,2.32316926273,-0.301778062627
-8.54494151711,1.10772915331,2.10768122825,0.812329873192
-6.16278860899,-2.18515001259,2.26219319378,-4.29356219099
-4.37063570087,-2.7180291785,2.19670515931,-5.60945425517
-3.79848279275,-3.7309083444,0.811217124839,-4.93534631936
-0.626329884628,-2.0237875103,-0.66427090963,-3.61123838354
-1.83417697651,1.01333332379,0.880241055896,-0.567130447721
-2.04202406839,-0.669545842113,0.374753021424,-2.7530225119
-3.13987116026,-1.16242500801,-0.790735013048,-1.13891457608
-3.74771825214,-3.28530417392,-0.386223047517,-3.46480664027
-5.51556534402,-3.37818333982,1.57828891801,-5.49069870445
-8.4934124359,-2.06106250573,2.30280088354,-2.29659076863
-11.7212595278,-4.56394167163,1.24731284907,-4.32248283281
-11.4291066197,-8.13682083754,-1.13817518541,-6.308374897
-5.48695371154,-8.26970000344,-3.64366321987,-4.09426696118
-4.66480080342,-8.45257916934,-3.16915125435,-4.29015902536
-8.38264789529,-8.14545833525,-3.01463928882,-7.30605108954
-9.99049498718,-7.58833750115,-2.57012732329,-7.90194315373
-10.0883420791,-9.40121666705,-2.74561535776,-8.13783521791
-13.2161891709,-9.66409583296,-3.59110339223,-8.16372728209
-13.4740362628,-10.4769749989,-4.25659142671,-7.92961934627
-11.9318833547,-10.7398541648,-3.09207946118,-7.28551141046
-11.4197304466,-8.79273333067,-1.03756749565,-6.63140347464
-8.73757753845,-8.88561249657,-1.66305553012,-9.14729553882
-5.57542463033,-9.19849166248,-1.27854356459,-9.503187603
-7.09327172221,-8.84137082838,-1.28403159907,-8.71907966718
-9.00111881409,-7.26424999428,-2.14951963353,-7.48497173137
-6.74896590596,-8.24712916019,-2.57500766801,-8.46086379555
-2.54681299784,-9.45000832609,-2.50049570248,-6.08675585973
-3.60466008972,-6.23288749199,-1.56598373695,-1.66264792391
-0.7425071816,-4.6257666579,-3.17147177142,-4.8785399881
4.18964572652,-5.8986458238,-4.66695980589,-10.4144320523
1.46179863465,-2.8215249897,-2.52244784037,-6.50032411646
-4.06604845724,-0.874404155613,-1.80793587484,-2.49621618064
-3.73389554911,-0.967283321512,-1.71342390931,-1.93210824483
-0.711742640993,-1.50016248742,-1.63891194378,-1.94800030901
1.83041026712,2.38695834668,-2.33439997825,0.826107626809
4.19256317525,3.54407918077,-1.00988801272,3.02021556263
3.76471608337,1.20120001487,0.484623952809,2.89432349844
5.79686899149,2.11832084897,0.169135918335,2.82843143426
5.49902189961,3.70544168307,-0.316352116137,2.61253937008
0.00117480773042,4.84256251716,0.538159849395,3.6466473059
0.213327715854,1.99968335126,0.00267181492018,0.360755241715
-1.82451937602,1.43680418535,-0.442816219551,3.76486317753
0.0776335320952,3.31392501945,-0.558304254024,5.50897111335
5.14978644022,3.63104585354,-0.533792288494,5.71307904917
5.14193934834,3.73816668764,0.720719677032,4.10718698499
4.26409225646,2.55528752174,1.21523164256,3.8712949208
5.40624516458,-0.997591644165,-1.40025639191,3.60540285662
5.7083980727,-0.180470810072,-1.35574442638,5.43951079244
4.73055098082,3.28665002403,-0.191232460853,3.25361872826
5.79270388895,4.24377085812,-2.19672049533,4.06772666407
7.53485679707,2.21089169222,-3.6922085298,-0.018165400108
6.18700970519,2.02801252631,-1.52769656427,1.25594253571
4.88916261331,0.155133360411,-1.68318459874,0.920050471527
1.20131552143,-2.59774580549,-1.51867263321,-1.66584159266
-1.26653157045,-0.360624971396,0.285839332319,1.53826634316
-3.86437866233,2.4964958627,1.12035129785,6.81237427898
-2.77222575421,-0.656383303205,0.404863263375,2.9064822148
-2.44007284609,-1.07926246911,1.0593752289,-0.799409849385
0.532080062032,0.237858364988,1.77388719443,-1.95530191357
5.35423297016,-0.545020800917,1.41839915996,-0.301193977749
3.62638587828,-1.39789996682,0.272911125488,-2.10708604193
2.2885387864,0.00922086727587,-0.282576908983,2.54702189389
4.43069169452,5.61634170137,0.191935056548,6.9111298297
4.74284460264,5.46346253547,1.30644702208,7.04523776552
6.14499751076,7.05058336956,0.640958987602,9.82934570134
4.77715041888,5.03770420366,-0.0745290468658,5.33345363716
2.019303327,1.54482503776,0.109982918661,4.13756157297
1.79145623513,2.88194587185,0.224494884187,4.00166950879
1.92360914325,4.44906670595,1.11900684972,0.545777444609
8.31576205137,9.56618754004,3.17351881525,4.67988538043
9.11791495949,13.1433083741,7.06803078077,14.9439933162
3.48006786761,11.1704292082,6.8925427463,12.0181012521
2.47222077573,7.95755004233,1.88705471183,3.75220918788
3.20437368385,6.25467087643,1.53156667736,1.9463171237
0.22652659197,6.36179171052,1.50607864289,-0.749574940484
0.108679500096,2.93891254462,1.44059060841,-1.01546700467
-0.0491675917874,-2.82396662128,0.275102573945,-2.40135906885
0.572985316336,-3.20684578719,-0.920385460526,-3.59725113303
0.995138224458,-2.15972495309,0.464126505001,-4.51314319721
3.44729113258,1.73739588101,1.68863847053,0.790964738603
1.2294440407,6.0645167151,3.64315043606,4.43507267442
-4.36335755813,-4.44029433138,0.362859738369,-8.64154069768
-0.0852854902878,-1.21086302301,1.27499605154,-3.35647214338
3.98278657756,3.34856828536,2.39713236472,0.948596410913
4.2808586454,4.41799959373,1.5892686779,-0.0563350347929
5.72893071325,4.4274309021,1.41140499107,-1.2312664805
7.2270027811,6.59686221047,3.04354130425,1.6638020738
10.2750748489,8.24629351883,2.65567761742,6.27887062809
12.1031469168,8.7957248272,1.0978139306,7.67393918238
10.5312189846,13.5951561356,1.02995024377,12.4190077367
9.74929105247,12.8045874439,1.51208655694,9.34407629097
9.42736312031,12.0240187523,1.96422287012,12.0991448453
11.2354351882,10.6334500607,1.1563591833,12.4942133996
12.123507256,6.06288136905,1.10849549648,3.66928195385
10.3715793238,6.26231267741,2.25063180965,1.56435050815
9.53965139169,5.45174398578,2.20276812282,5.02941906244
5.30772345954,4.55117529415,3.504904436,4.48448761674
7.11579552738,3.25060660252,2.78704074917,8.60955617103
8.47386759523,6.22003791089,2.95917706235,13.9746247253
7.30193966307,7.30946921925,2.58131337553,7.30969327962
11.1600117309,4.16890052762,1.6434496887,6.10476183391
8.36808379876,0.728331835991,1.70558600188,4.72983038821
7.16615586661,-4.08223685564,0.317722315052,-1.2251010575
8.62422793445,-6.32280554727,-0.910141371773,-2.67003250321
4.77230000229,-3.93337423891,-0.0380050585991,0.0850360510885
2.93037207014,-2.76394293054,-0.195868745424,-0.239895394617
2.53844413798,-6.63451162217,-0.663732432244,-3.53482684032
6.22651620582,-1.9650803138,0.448403880928,0.520241713971
8.92458827367,3.14435099457,2.4605401941,8.61531026826
6.14266034152,4.61378230293,2.68267650728,8.69037882256
1.69073240936,2.64321361131,-1.56518717955,3.94544737685
0.548804477206,3.33264491968,-1.78305086637,0.960515931148
-0.173123454952,3.21207622804,-0.740914553196,1.25558448544
1.89494861289,4.66150753641,-0.808778240022,1.24065303974
3.88302068074,5.62093884478,-2.68664192684,2.54572159403
8.37109274858,5.12037015315,-3.28450561367,3.67079014832
5.74916481643,2.74980146152,-2.86236930049,2.58585870262
1.91723688427,2.00923276988,-3.02023298732,2.37092725691
-2.33469104788,-2.80133592175,-4.15809667414,-1.66400418879
-3.88661898004,-4.08190461338,-4.27596036097,-4.4489356345
-5.58854691219,-4.44247330501,-2.44382404779,-4.88386708021
-8.61047484435,-6.84304199665,-2.73168773462,-7.97879852591
-9.64240277651,-8.12361068828,-1.92955142144,-9.00372997162
-6.65433070866,-6.31417937991,-1.92741510826,-3.69866141732
-6.70625864082,-7.68474807154,-2.13527879509,-4.46359286303
-10.918186573,-6.50531676317,-0.633142481915,-5.14852430873
-11.3001145051,-6.8458854548,-0.771006168739,-3.04345575444
-12.8920424373,-6.31645414644,-1.32886985557,-4.81838720015
-13.1239703694,-4.75702283807,-1.10673354239,-4.78331864585
-8.95589830159,-6.8675915297,-2.78459722921,-4.19825009156
-7.25782623375,-4.27816022133,-2.40246091604,-3.78318153726
-5.4997541659,1.66127108704,-0.420324602863,3.87188701703
-7.83168209806,1.57070239541,0.901811710311,3.11695557132
-5.42361003022,0.470133703777,-0.466051976513,2.63202412562
-7.12553796237,-1.03043498786,-0.95391566334,0.587092679912
-6.50746589453,-3.16100367949,-0.641779350164,2.09216123421
-9.30939382668,-7.10157237112,-2.47964303699,-2.1227702115
-11.8113217588,-8.02214106275,-1.53750672381,-6.42770165721
-10.453249691,-6.50270975438,0.224629589364,-2.77263310291
-14.7151776232,-5.80327844602,1.27676590254,-3.36756454862
-15.7171055553,-4.93384713765,2.36890221571,-7.69249599432
-10.9490334875,-4.40441582928,3.19103852889,-3.79742744003
-11.4209614196,-2.86498452091,4.78317484206,1.75764111426
-12.7628893518,-1.55555321254,4.42531115524,-0.987290331442
-10.9148172839,-0.816121904176,2.78744746842,-0.102221777147
-6.76674521608,-0.376690595807,1.91958378159,2.18284677715
-7.14867314824,-3.82725928744,0.421720094768,1.00791533144
-6.22060108039,-6.03782797907,-1.68614359206,-3.82701611426
-3.52252901255,-5.8183966707,-1.86400727888,-6.81194755997
-5.4544569447,-6.31896536233,-1.99187096571,-9.21687900568
-3.62638487686,-2.70953405396,-1.94973465253,-5.77181045138
-3.80831280901,-3.25010274559,-1.03759833936,-2.87674189709
-6.29024074117,-4.59067143723,-0.0354620261787,-1.17167334279
-11.6421686733,-6.74124012886,-0.283325713004,-5.3666047885
-13.0840966055,-10.7318088205,-2.87118939983,-14.6715362342
-16.5060245376,-11.9223775121,-3.31905308666,-16.7464676799
-17.5179524698,-11.5829462038,-1.37691677348,-15.1213991256
-15.1998804019,-7.59351489539,-1.13478046031,-9.43633057132
-14.2418083341,-3.99408358702,-1.49264414713,-3.01126201703
-11.7937362663,-2.12465227865,-1.24050783395,-3.36619346274
-13.0956641984,0.634779029719,-0.218371520779,-2.08112490844
-15.6475921306,-1.26578966191,0.313764792398,-4.21605635415
-13.9995200627,-1.06635835355,0.89590110557,-6.87098779985
-9.58144799488,0.243072954821,0.0480374187464,-6.81591924556
-5.60337592703,2.63250426319,-0.66982626808,-2.64085069126
-7.02530385919,4.41193557156,0.942310045099,-1.58578213697
-3.65723179135,2.04136687993,-0.825553641724,1.70928641732
-0.529159723501,-3.10920181171,-3.89341732855,-2.75564502838
-2.99108765566,-5.83977050334,-3.28128101538,-11.1205764741
1.46698441219,-9.06033919497,-4.1391447022,-11.3655079198
3.13505648003,-10.9909078866,-4.33700838903,-9.2504393655
1.88312854787,-10.1514765782,-2.57487207585,-13.5753708112
0.491200615721,-12.6320452699,-5.03273576267,-17.6803022569
6.78927268357,-13.6926139615,-5.2105994495,-14.8752337026
10.4673447514,-8.86318265313,-3.04846313632,-8.86016514832
13.3654168193,-6.70375134476,-2.95632682315,-5.09509659403
13.9234888871,-5.36432003639,-2.51419050997,-6.54002803974
12.3915609549,-2.95488872802,-2.4620541968,-5.49495948544
13.2396330228,-2.89545741965,-2.37991788362,-4.41989093115
10.6177050906,1.16397388871,-1.23778157045,-1.99482237685
8.01577715848,3.17340519708,-0.275645257268,1.23024617744
8.52384922632,2.05283650545,-0.103508944096,2.49531473173
5.43192129417,4.08226781382,0.878627369078,0.600383286029
2.13999336201,5.64169912219,1.93076368226,1.44545184032
2.00806542986,7.04113043056,2.24289999543,3.80052039462
-0.343862502297,6.50056173892,3.5850363086,1.70558894891
1.21420956555,7.29999304729,4.27717262178,6.30065750321
2.32228163339,8.45942435566,4.85930893496,7.6657260575
-2.41964629877,8.60885566403,5.21144524813,8.95079461179
-0.0115742309208,5.55828697239,3.40358156131,5.63586316609
-2.77350216308,1.46771828077,1.65571787448,3.76093172038
-1.25543009523,-2.11285041086,-1.47214581234,-0.893999725325
1.11264197261,-1.40341910249,-1.27000949917,-0.0189311710301
3.99071404045,-0.043987794128,-0.777873185994,2.24613738326
3.9387861083,0.935443514241,-2.54573687282,5.12120593756
5.80685817615,1.59487482261,-3.68360055964,4.29627449185
5.66493024399,1.01430613098,-3.87146424647,2.63134304615
5.90300231184,3.48373743934,-1.69932793329,3.66641160044
6.81107437968,6.79316874771,0.692808379885,3.70148015473
7.02914644752,8.26260005608,1.80494469306,6.77654870903
7.87721851537,10.0620313644,3.45708100624,8.30161726332
9.18529058321,10.2414626728,4.77921731941,8.53668581762
9.49336265106,8.71089398118,5.31135363259,8.45175437191
8.1914347189,9.44032528955,5.11348994576,10.7668229262
8.02950678674,10.7797565979,4.81562625894,11.0918914805
7.46757885459,9.51918790629,3.83776257211,13.3969600348
10.7456509224,5.37861921466,2.58989888529,12.2520285891
9.78372299028,6.93805052303,2.87203519846,14.5770971434
10.5517950581,5.30748183139,0.484171511638,12.4421656977
-3.73551235464,-0.605933866271,-1.66932776164,0.720755813952
-4.85544154,0.332506037132,-0.589967039014,-1.8976579095
-6.46537072536,-4.63905405946,-2.55060631639,-7.49607163294
-14.6952999107,-10.3506141561,-3.12124559376,-12.9544853564
-17.3352290961,-11.9221742526,-3.39188487114,-16.8328990798
-16.6451582814,-13.1637343492,-3.92252414851,-16.0413128033
-18.0950874668,-13.6352944458,-4.29316342589,-16.3597265267
-18.1450166522,-14.4468545424,-3.61380270326,-16.2081402502
-14.9249458375,-12.418414639,-4.02444198064,-13.8265539736
-13.8548750229,-11.0499747356,-3.88508125802,-12.4549676971
-13.4248042082,-11.1015348322,-3.98572053539,-11.9233814205
-7.5547333936,-8.31309492881,-3.00635981277,-7.31179514398
-2.61466257896,-7.6246550254,-2.12699909015,-5.89020886742
-0.804591764318,-8.376215122,-2.76763836752,-8.90862259087
0.135479050317,-4.39777521859,-1.6382776449,-3.28703631432
-0.714450135041,-0.389335315183,-0.818916922271,-0.0154500377685
0.245620679601,1.65910458822,0.820443800349,1.27613623878
-0.964308505758,2.43754449163,1.49980452298,2.78772251534
-0.874237691118,6.47598439503,2.9191652456,6.46930879189
2.74583312352,7.51442429844,3.75852596822,8.06089506844
4.50590393816,7.03286420185,4.14788669085,7.29248134499
0.0159747527978,10.8713041053,5.27724741347,9.29406762154
-2.53395443256,10.1097440087,3.9666081361,6.4956538981
-3.09388361792,5.64818391206,0.62596885872,2.70724017465
-6.38381280328,3.78662381547,0.745329581343,1.8288264512
-8.70374198864,1.02506371887,-0.11530969603,0.460412727751
-6.963671174,-0.166496377718,-0.795948973406,1.3419990043
-7.95360035936,-1.48805647431,-0.0665882507856,-1.21641471915
-7.90352954472,-1.69961657091,0.0127724718404,-1.67482844259
-8.19345873008,-3.7811766675,-1.45786680554,-4.18324216604
-7.50338791544,-4.0827367641,-2.60850608291,-6.31165588949
-5.4333171008,-5.23429686069,-4.47914536028,-5.25006961294
-3.86324628616,-5.93585695728,-5.13978463766,-1.54848333639
-5.14317547152,-4.50741705388,-3.72042391504,0.563102940166
-0.243104656878,-4.44897715047,-3.82106319242,-2.82531078328
2.59696615776,-1.73053724707,-2.82170246979,-5.04372450673
0.107036972397,2.56790265634,1.02765825283,0.917861769822
3.54710778704,4.01634255974,2.31701897546,5.66944804637
6.34717860168,6.46478246315,5.25637969808,8.21103432293
9.71724941632,11.0032223666,7.69574042071,11.8226205995
10.567320231,14.07166227,8.06510114333,10.534206876
10.2773910456,13.1301021734,7.18446186596,7.71579315258
10.0974618602,11.8185420768,7.64382258858,7.63737942913
10.1175326749,12.3069819802,7.9031833112,7.91896570569
10.5876034895,10.9554218836,6.03254403383,7.59055198224
11.4976743042,7.71386178699,2.44190475645,9.15213825879
10.8777451188,4.2823016904,0.781265479076,7.08372453534
5.23781593344,1.3707415938,0.630626201699,2.51531081189
6.59788674808,1.26918149721,-1.06001307568,-1.02310291155
7.17795756272,-2.20237859939,-2.36065235305,-3.091516635
5.81802837736,-8.53393869598,-3.45129163043,-6.49993035845
5.708099192,-10.0654987926,-3.1719309078,-9.2283440819
2.79817000664,-8.32705888917,-1.93257018518,-5.19675780535
1.54824082128,-4.64861898576,0.226790537443,0.604828471205
4.11831163592,-4.19017908236,0.746151260071,2.25641474776
4.44838245056,-1.40173917895,1.94551198269,2.50800102431
5.2784532652,-0.0432992755414,2.11487270532,1.11958730086
8.95852407984,-0.0948593721369,1.54423342794,-2.59882642259
11.3985948945,-1.82641946873,0.433594150567,-0.937240146035
12.0186657091,-2.59797956533,0.0029548731909,-0.0456538694825
15.1287365238,0.39046033808,-0.097684404187,3.85593240707
14.3688073384,1.83890024148,-1.04832368156,6.27751868362
14.768878153,5.31734014489,-0.528962958935,11.5491049602
15.8589489677,7.6757800483,-0.159602236316,13.6106912367
17.5990197823,6.5942199517,0.229758486312,13.6522775133
18.539090597,6.50265985511,0.259119208935,12.6538637898
15.8991614116,5.44109975851,0.0284799315596,11.9354500664
17.3292322262,2.78953966192,-0.252159345815,7.78703634293
16.2993030409,3.52797956533,0.537201376806,3.95862261948
10.3793738555,6.06641946873,0.416562099432,6.77020889604
10.2194446702,5.52485937214,-0.894077177942,6.20179517259
10.9995154848,5.35329927554,-0.454716455322,3.35338144914
7.08958629944,6.24173917895,2.08464426731,4.66496772569
8.58965711408,6.14017908236,2.04400498993,5.67655400224
11.4497279287,8.16861898576,1.43336571255,7.8581402788
11.3797987434,13.0170588892,3.74272643518,14.0897265553
8.739869558,9.53549879257,3.2120871578,9.9013128319
5.42994037264,4.50393869598,2.44144788042,4.19289910845
5.45001118728,5.05237859938,2.79080860305,3.424485385
4.69008200192,7.14081850279,2.33016932567,6.09607166156
3.10015281656,8.3492584062,3.2595300483,6.82765793811
2.9702236312,11.3976983096,4.40889077092,11.6692442147
5.11029444584,9.82613821301,2.80825149354,11.0708304912
4.48036526048,7.20457811641,1.59761221617,1.63241676776
6.27043607512,5.27301801982,1.0469729388,-0.0559969556843
1.28050688976,4.01145792323,1.05633366142,1.36558932087
-4.3694222956,1.56989782663,0.0156943840411,2.14717559742
-5.81935148096,-0.781662269961,-0.0849448933332,0.838761873972
-5.84928066632,-2.60322236656,-1.64558417071,0.850348150523
-6.06920985168,-0.78478246315,-1.60622344809,-0.078065572925
-6.13913903704,2.90365744025,-0.236862725462,1.28352070363
-6.0290682224,2.93209734366,-0.26750200284,1.91510698018
-10.0089974078,0.670537247068,0.431858719789,0.236693256731
-9.44892659312,-0.611022849527,1.49121944241,-2.88172046672
-3.79885577848,-0.862582946123,1.22058016503,-2.20013419017
-0.138784963841,-2.57414304272,-2.35005911234,-1.30854791361
-2.5287141492,-3.13570313931,-2.09069838972,-1.78696163706
-5.76864333456,-3.5272632359,-1.41133766709,1.37462463949
-5.92857251992,-4.2688233325,-3.37197694447,-1.56378908396
-4.04850170528,-2.20038342909,-1.99261622184,0.217797192595
-2.32843089064,0.388056474312,-1.49325549922,3.13938346915
-3.578360076,0.416496377718,-0.943894776592,-0.139030254301
-8.45828926136,0.434936281123,0.715465946028,-2.66744397775
-6.08821844672,-0.0866238154667,0.304826668653,-1.3658577012
-1.41814763208,-2.55818391206,-0.425812608722,-0.704271424645
-2.26807681744,-4.34974400866,-2.4664518861,-3.08268514809
-2.5180060028,-4.96130410525,-3.68709116347,-3.56109887154
-2.62793518816,-5.37286420185,-2.73773044085,-1.99951259499
-2.00786437352,-2.90442429844,-2.43836971822,-2.70792631844
0.00220644111687,0.0440156049663,-3.35900899561,-0.206340041887
0.00227725575678,-0.167544491625,-2.02964827298,-0.824753765334
-3.6576519296,2.33089541178,0.549712449647,1.33683251122
-3.01758111496,1.86933531518,0.889073172271,0.23841878777
-2.65751030032,0.00777521858981,1.8184338949,-1.08999493568
-5.33743948568,-0.713784878008,0.99779461752,-0.318408659126
-7.70736867104,-2.8653449746,-0.242844659857,-2.47682238257
-5.4772978564,-2.06690507119,0.506516062767,-5.61523610602
-5.69722704176,-2.85846516779,-0.30412321461,-6.51364982947
-2.07715622712,-1.55002526438,-1.43476249198,-4.22206355292
-3.33708541248,-1.38158536098,-1.38540176936,-2.56047727637
-6.43701459784,-3.98314545757,-2.01604104674,-7.07889099981
-8.3669437832,-6.73470555416,-1.49668032411,-12.3173047233
-8.14687296856,-9.40626565076,-1.25731960149,-12.5757184467
-10.0268021539,-13.0278257474,-1.82795887886,-16.1641321702
-11.4567313393,-12.8193858439,-0.908598156238,-14.8525458936
-11.5466605246,-10.7509459405,-0.469237433615,-13.6509596171
-9.77658971,-8.25250603714,-0.67987671099,-6.9593733405
-6.93651889536,-6.71406613373,0.0694840116303,-4.59778706395
-4.1189789244,-7.10607194767,-1.36123909885,-4.65689316861
-2.5823968252,-4.26172804889,-1.02802568784,-0.802640913982
-0.955814725996,-1.46738415011,-0.444812276837,-1.05838865936
1.09076737321,2.84695974867,0.0484011341723,4.61586359527
4.95734947241,3.25130364746,-0.658385454826,7.20011584989
2.08393157161,3.01564754624,1.23482795618,2.71436810451
4.41051367082,2.96999144502,1.19804136719,2.21862035914
2.45709577002,1.7643353438,0.0112547781901,3.19287261376
-1.05632213078,-0.941320757414,-1.2155318108,1.45712486838
-2.33974003157,-1.02697685863,-0.612318399799,1.69137712301
-2.05315793237,-4.35263295985,-1.74910498879,-4.17437062237
-2.77657583317,-2.02828906107,-2.45589157779,-3.78011836774
-2.23999373397,1.25605483771,-1.85267816678,2.20413388688
3.09658836524,1.46039873649,-1.46946475577,2.7983861415
7.04317046444,2.49474263528,-1.06625134477,5.20263839613
7.86975256365,2.02908653406,-1.71303793376,2.64689065075
4.39633466285,0.173430432842,-1.86982452276,0.671142905374
2.54291676205,-0.342225668373,-1.52661111175,0.125395159997
1.09949886125,-1.05788176959,-2.08339770075,-1.20035258538
-3.37391903954,-2.08353787081,-1.93018428974,-3.31610033076
-2.21733694034,-0.469193972029,-1.32697087874,0.588151923869
-1.48075484114,0.625149926753,-1.79375746773,3.17240417849
-1.91417274193,2.75949382554,-2.12054405672,2.17665643312
2.48240935727,3.27383772431,-2.20733064572,2.73090868774
2.85899145647,1.3481816231,-1.94411723472,1.84516094236
6.54557355568,-1.32747447812,-2.32090382371,-1.76058680301
4.86215565488,0.106869420662,-0.667690412705,-2.39633454839
2.41873775409,1.42121331945,0.725522998302,1.48791770623
-0.244680146712,2.11555721823,0.838736409307,-0.667830039141
-1.69809804751,1.93990111701,1.73194982031,2.17642221548
3.0784840517,2.90424501579,1.13516323132,6.31067447011
3.2950661509,2.16858891457,1.08837664232,1.04492672473
5.0116482501,2.61293281336,1.05159005333,0.859178979354
4.33823034931,0.717276712137,0.204803464334,2.10343123398
2.83481244851,0.631620610919,0.338016875343,1.5776834886
3.96139454771,0.835964509701,0.251230286347,3.04193574322
5.09797664691,1.57030840849,1.19444369735,1.57618799785
6.30455874612,0.924652307265,1.03765710836,-2.47955974753
7.86114084532,-0.23100379395,-0.349129480641,-0.315307492904
5.79772294452,1.31334010483,2.00408393037,2.61894476172
3.71430504373,0.707684003613,2.13729734137,1.40319701634
3.62088714293,-1.1379720976,0.370510752378,-2.98255072903
1.93746924213,1.89637180118,1.02372416338,0.27170152559
1.31405134134,-0.239284300042,1.24693757439,-2.17404621979
-0.389366559462,-2.54494040126,0.180150985394,-2.98979396516
-1.78278446026,-2.27059650248,-1.3866356036,0.194458289462
-1.22620236105,0.273747396306,-0.913422192592,-0.681289455914
-0.76962026185,0.658091295089,-0.530208781591,-3.25703720129
-1.57303816265,0.342435193874,1.43300462942,0.797215053332
-3.45645606344,-1.57322090735,2.98621804042,-1.68853269204
-5.27987396424,0.601122991437,3.09943145143,-2.19428043742
-3.58329186504,-0.634533109784,1.87264486243,-3.8800281828
-2.87670976583,-0.070189211001,2.18585827344,-4.93577592817
-2.59012766663,0.244154687782,1.80907168445,-1.66152367355
-4.69354556743,-1.43150141344,3.24228509545,2.30272858107
-6.59696346822,-3.43715751465,1.58549850645,-3.6730191643
0.189618630982,-5.09281361587,-0.801288082537,-6.47876690968
1.39620073018,-3.20846971709,0.781925328465,-2.32451465505
0.742782829388,-3.45412581831,0.875138739473,-1.71026240043
1.11936492859,-2.95978191952,1.45835215048,-1.24601014581
0.105947027794,-3.74543802074,2.20156556149,-1.55175789118
-2.64747087301,-2.17109412196,2.29477897249,1.37249436344
-4.3108887738,3.25324977682,3.45799238349,4.77674661806
-2.1943066746,2.8175936756,2.0912057945,3.47099887269
-2.93772457539,0.361937574384,1.3844192055,-0.0647488726881
-3.97114247619,-1.78371852683,0.847632616511,-4.52049661806
-2.22456037698,-0.779374628051,0.240846027515,-1.35624436344
-3.90797827778,-1.26503072927,-0.155940561479,0.508007891183
-7.02139617858,-2.54068683049,-1.02272715047,-2.20773985419
-5.15481407937,-4.34634293171,-1.21951373947,-4.00348759957
-7.18823198017,-5.31199903292,-0.666300328463,-6.15923534495
-7.17164988097,-4.23765513414,0.506913082543,-4.64498309032
-2.50506778177,-1.10331123536,1.15012649355,-0.630730835698
-5.88848568256,1.31103266342,1.89333990455,-0.906478581074
-7.39190358336,-2.08462343779,1.82655331556,-2.95222632645
-10.1653214842,-2.53027953901,1.91976672657,-6.64797407183
-11.178739385,2.03406435977,4.22298013757,-3.9137218172
-4.54215728575,0.428408258551,2.34619354858,-0.549469562579
-6.53557518655,0.522752157332,1.87940695958,-2.02521730796
-7.11899308734,1.77709605612,1.81262037058,0.399034946668
-7.22241098814,-1.1985600451,0.0958337815937,-6.47671279871
-6.30582888894,-2.18421614632,0.609047192596,-7.49246054408
-6.71924678973,-0.839872247536,1.0622606036,-4.36820828946
-4.59266469053,-1.86552834875,-0.104525985393,-1.83395603484
-3.72608259133,-1.77118444997,1.10868742561,-3.59970378021
-4.06950049213,0.93315944881,2.25190083662,-2.98545152559
-3.27291839292,2.38750334759,2.23511424763,0.218800729034
-0.0363362937205,2.73184724637,-0.111672341369,-1.57694701634
1.17024580549,1.96619114515,-0.178458930364,-2.57269476172
-0.56317209531,1.19053504394,-1.16524551936,-1.30844250709
1.49341000389,1.36487894272,-0.082032108352,3.15580974753
-1.09000789691,2.3092228415,1.03118130265,3.55006200215
-0.683425797703,2.26356674029,-1.35560528634,-0.215685743224
-1.5868436985,4.34791063907,-1.55239187534,1.8585665114
-2.6402615993,3.83225453785,-0.369178464331,4.59281876602
1.88632049991,1.17659843663,-1.34596505333,1.00707102065
0.722902599115,0.400942335415,-1.39275164232,-0.318676724729
-0.760515301685,1.18528623419,-2.34953823132,0.655575529895
-2.70393320248,1.58963013298,-3.24632482031,-2.77017221548
-1.52735110328,1.70397403176,-2.6131114093,-1.64591996086
3.58923099592,0.118317930541,-4.1298979983,0.448332293766
3.91581309513,-0.417338170679,-4.12668458729,-1.74741545161
4.15239519433,3.7870057281,-2.12347117629,4.96683680301
4.90897729354,3.65134962689,-1.91025776528,7.01108905764
1.62555939274,4.05569352567,-0.327044354275,7.83534131226
1.14214149194,2.61003742445,0.236169056727,6.21959356688
3.77872359115,1.55438132324,-0.190617532266,4.64384582151
2.78530569035,1.64872522202,-0.567404121259,5.94809807613
4.90188778955,1.5630691208,-1.21419071025,6.97235033076
7.15846988876,-1.38258698042,-0.920977299247,3.33660258538
7.08505198796,-3.25824308164,-1.51776388825,-0.979145159997
5.83163408716,-1.82389918285,-1.42455047724,-1.08489290537
7.40821618637,0.210444715925,-2.23133706623,2.90935934925
7.72479828557,1.28478861471,-0.978123655226,1.11361160387
4.27138038477,0.949132513495,0.325089755777,0.807863858498
2.72796248398,-0.506523587723,-1.04169683321,1.02211611312
-1.05545541682,-2.20217968894,-0.588483422209,-1.71363163225
-4.52887331762,-3.11783579016,-0.925270011205,-3.61937937763
-5.29229121841,-5.05349189138,-1.5720566002,-4.23512712301
-4.09570911921,-7.2191479926,-3.33884318919,-4.60087486838
0.0808729799901,-6.72480409381,-2.70562977819,-4.96662261376
1.06745507919,-2.50046019503,-0.292416367181,0.077629640864
4.9640371784,-0.396116296251,-0.469202956177,1.12188189549
5.1206192776,0.738227602531,1.03401045483,-0.923865849889
0.287201376803,1.59257150131,2.19722386583,-1.13961359526
5.28378347601,2.7769154001,2.40043727684,3.59463865936
10.6703655752,3.52125929888,2.33365068784,6.73889091398
2.70694767441,3.90560319766,3.54686409885,7.44314316861
-3.5352797965,6.81774709303,-4.93970203489,12.0853488372
0.345241342031,3.49179585928,-5.21074511308,10.046571198
0.145762480559,1.70584462553,-1.11178819127,8.88779355887
1.47628361909,-2.42010660822,-0.892831269462,-3.4809840803
7.77680475761,1.31394215803,0.26612565235,-0.219761719467
10.1573258961,2.41799092428,1.20508257416,6.47146064136
9.17784703467,2.51203969053,2.05403949597,3.8426830022
8.9583681732,4.00608845679,0.872996417776,6.34390536303
10.6888893117,3.59013722304,0.831953339584,5.56512772386
11.2994104503,3.70418598929,0.230910261394,6.13635008469
7.00993158878,4.82823475554,1.9698671832,9.41757244552
7.37045272731,1.14228352179,0.678824105013,1.60879480635
9.03097386584,0.746332288047,0.337781026825,1.71001716718
10.1614950044,1.0603810543,1.65673794863,3.66123952802
6.90201614289,-2.61557017945,-0.10430512956,-0.0775381111525
0.872537281415,-4.0915214132,-1.87534820775,-3.99631575032
-1.26694158006,-4.97747264695,-1.73639128594,-3.60509338949
-0.146420441528,-5.2434238807,-0.957434364132,-0.403871028659
-2.755899303,-3.51937511445,-0.68847744232,2.45735133217
-2.50537816447,-1.83532634819,-1.66952052051,3.718573693
1.50514297406,-4.09127758194,-2.2105635987,-1.99020394616
3.23566411258,-3.92722881569,-0.531606676894,-4.01898158533
-0.543814748889,-1.68318004944,-0.602649755085,-3.4677592245
-1.22329361036,-2.26913128318,-2.03369283327,-6.49653686367
-3.99277247184,-1.43508251694,-2.61473591147,-4.98531450284
-4.88225133331,-0.551033750686,-0.265778989658,-3.80409214201
-4.90173019478,-1.66698498443,1.66317793215,-3.26286978118
-2.86120905625,-3.54293621818,-0.417865146039,-4.25164742034
-1.02068791772,-1.76888745193,-0.688908224231,-1.49042505951
2.8098332208,-2.74483868568,-2.44995130242,-1.76920269868
3.80035435933,-3.50078991943,-2.59099438061,-4.21798033785
0.140875497862,-2.11674115318,-0.462037458798,-2.72675797702
-3.29860336361,-2.24269238692,-1.44308053699,-2.80553561619
-1.41808222509,-2.41864362067,-1.82412361518,-7.44431325536
-1.54756108656,-4.00459485442,-2.92516669337,-9.24309089453
-0.99703994803,-6.50054608817,-3.54620977156,-10.3218685337
-0.106518809502,-4.70649732192,-1.44725284976,-5.06064617286
1.80400232902,-2.33244855567,-0.288295927945,-2.53942381203
-1.18547653245,-2.28839978941,0.450660993865,-1.9282014512
-6.29495539392,-2.25435102316,-0.690382084329,-1.95697909037
-10.0244342554,-6.19030225691,-2.61142516251,-6.63575672954
-11.8039131169,-7.32625349066,-1.02246824071,-9.80453436871
-13.0733919783,-5.42220472441,-0.843511318901,-6.57331200787
-12.2428708398,-5.18815595816,-2.54455439709,-5.95208964704
-13.4423497013,-4.2041071919,0.0544025247182,-6.25086728621
-14.8018285628,-4.89005842566,-0.39664055347,-7.69964492538
-13.8313074242,-6.4660096594,0.0723163683397,-9.26842256455
-10.8107862857,-5.57196089315,1.35127329015,-8.62720020372
-9.67026514717,-3.2879121269,-0.169769788041,-9.11597784289
-9.72974400864,-1.13386336065,-1.15081286624,-4.76475548206
-5.51922287012,-2.69981459439,-1.76185594443,-4.86353312122
-7.47870173159,-3.67576582814,-1.51289902261,-6.59231076039
-9.28818059306,-1.28171706189,0.786057899193,-5.17108839956
-5.96765945453,-0.0676682956437,1.235014821,-1.98986603873
-3.61713831601,0.716380470611,1.84397174281,-0.628643677898
-0.756617177478,4.05042923686,2.96292866462,3.51257868293
0.843903961049,4.37447800311,2.17188558643,5.42380104376
2.76442509958,3.00852676936,0.140842508241,0.705023404596
3.51494623811,3.17257553562,-0.91020056995,0.536245765427
1.59546737663,3.98662430187,-0.0412436481383,1.12746812626
3.61598851516,7.61067306812,2.88771327367,4.80869048709
4.87650965368,5.06472183437,3.69667019548,4.27991284792
2.75703079221,4.99877060062,3.60562711729,4.54113520875
4.16755193074,5.38281936687,3.3845840391,5.65235756958
7.32807306927,5.94686813312,3.6935409609,6.66357993042
5.5685942078,5.02091689938,3.56249788271,6.65480229125
3.24911534633,3.07496566563,2.87145480452,5.66602465208
-0.080363515146,0.869014431883,0.750411726331,0.44724701291
-2.09984237662,0.853063198134,-0.350631351856,-3.18153062626
0.630678761911,-0.422888035617,-1.11167443005,-4.98030826543
-0.258800099567,1.31116073064,0.327282491762,-1.4590859046
-0.878278961038,3.41520949689,1.88623941357,2.97213645623
-2.52775782251,6.80925826314,4.05519633538,7.81335881707
-3.39723668398,8.58330702939,4.68415325719,5.1645811779
-0.926715545454,6.24735579564,3.743110179,2.07580353873
-1.32619440693,4.97140456189,2.76206710081,1.41702589956
-6.0356732684,4.46545332815,3.85102402262,1.85824826039
-5.67515212987,2.2595020944,2.44998094443,0.119470621223
-8.10463099134,-0.306449139352,1.55893786623,-4.84930701795
-5.97410985281,1.3875996269,1.68789478805,-5.05808465711
-3.44358871429,1.13164839315,1.21685170985,-1.00686229628
-1.38306757576,0.355697159404,0.505808631664,-1.23563993545
3.22745356277,2.45974592565,0.704765553473,3.93558242538
2.73797470129,1.76379469191,-0.346277524717,3.48680478621
1.09849583982,1.97784345816,-1.21732060291,1.90802714704
-0.69098302165,2.13189222441,1.5316363189,2.36924950787
-0.570461883122,-0.564059009339,1.06059324071,1.17047186871
-4.15994074459,-0.130010243087,0.58955016252,0.0416942295369
-3.95941960607,-0.845961476836,0.478507084328,-1.08708340963
-1.42889846754,0.498087289416,1.10746400614,-1.3558610488
-3.51837732902,4.95213605567,3.14642092795,6.83536131203
1.11214380951,4.55618482191,2.11537784976,11.0065836729
1.92266494804,3.89023358817,1.31433477156,6.27780603369
4.34318608657,7.51428235442,2.16329169338,6.50902839452
8.5537072251,5.99833112067,1.67224861518,8.04025075536
5.31422836363,5.47237988692,2.431205537,8.30147311619
3.26474950216,5.94642865318,3.3401624588,8.40269547702
6.69527064068,4.72047741943,3.67911938061,6.94391783785
6.91579177921,7.67452618568,4.07807630242,8.51514019868
7.61631291773,9.88857495193,3.65703322423,11.9463625595
11.1768340563,8.95262371819,2.71599014604,11.2475849203
12.1273551948,6.00667248443,1.89494706785,7.76880728118
7.49787633332,5.30072125069,1.87390398966,10.470029642
6.32839747185,2.66477001694,-0.167139088535,6.08125200284
9.54891861037,1.23881878319,-1.00818216672,3.00247436367
6.8694397489,-0.0471324505597,-0.879225244913,5.0036967245
3.81996088743,-0.873083684306,0.839731676897,2.98491908533
7.17048202596,0.490965081943,1.48868859871,5.29614144616
9.41100316448,1.4350138482,1.21764552052,3.967363807
6.49152430301,3.87906261445,1.13660244233,2.70858616783
8.35204544154,1.8031113807,-1.01444063587,1.39980852866
8.22256658007,-0.782839853051,-1.95548371406,0.341030889489
3.60308771859,-1.0187910868,-3.20652679225,1.58225325032
0.993608857123,-2.44474232055,-2.17756987044,-3.00652438885
-1.54587000435,-2.0206935543,-2.57861294863,-3.10530202802
-4.84534886582,-5.34664478805,-3.60965602682,-6.09407966718
-6.31482772729,-8.24259602179,-3.69069910501,-9.32285730635
-7.38430658877,-10.2785472555,-3.4917421832,-14.7616349455
-7.04378545024,-5.95449848929,-2.31278526139,-9.99041258469
-2.61326431171,-5.69044972304,-3.42382833958,-5.56919022386
-2.89274317319,-3.86640095679,-2.71487141777,-2.91796786303
-0.702222034659,-4.11235219054,-2.46591449596,-0.496745502197
-1.10170089613,-3.74830342428,-2.84695757415,-0.165523141365
-3.0611797576,-5.46425465803,-3.84800065235,-4.65430078053
-4.53065861907,-7.05020589178,-3.95904373054,-7.0530784197
-3.49013748054,-8.67615712553,-4.23008680873,-8.91185605887
-6.32961634202,-9.65210835928,-3.20112988692,-10.380633698
-5.15909520349,-11.928059593,-5.26217296511,-10.7894113372
-4.73412790697,-0.71111191859,-0.694302325595,-6.71518531977
-4.12746472142,1.13998580847,0.262630585043,-1.59454878914
-5.04080153588,-0.768916464458,-0.300436504316,-3.84391225852
-5.82413835034,-1.1878187374,0.876496406323,-4.82327572789
-3.93747516479,-4.23672101033,-0.426570683037,-0.572639197262
-2.89081197925,-1.91562328327,-1.3096377724,0.367997333364
-1.09414879371,0.375474443797,-1.82270486176,-0.321366136011
1.78251439183,-4.13342782914,-3.64577195112,-6.71072960538
0.429177577378,-6.31233010208,-3.38883904048,-8.99009307476
0.625840762918,-5.13123237501,-1.11190612984,-5.13945654413
0.702503948465,-6.89013464794,-0.714973219201,-4.7788200135
-1.11083286599,-5.48903692088,-0.748040308565,-4.95818348288
1.72583031955,-1.83793919381,0.838892602074,-1.30754695225
0.522493505094,0.233158533247,1.80582551272,-0.136910421626
-0.120843309367,-1.36574373969,1.66275842336,-0.766273890999
-4.99418012382,0.215353987376,3.55969133399,0.154362639626
-6.53751693828,3.28645171444,4.35662424464,3.80499917025
-1.90085375274,3.0775494415,3.92355715527,4.70563570088
1.27580943281,0.00864716857177,2.13049006591,2.49627223151
-3.84752738165,-0.320255104365,1.80742297655,-2.91309123787
-7.84086419611,0.120842622699,2.85435588719,-2.33245470724
-7.82420101057,3.44194034976,2.04128879783,1.94818182338
-4.23753782502,0.903038076827,1.00822170847,3.06881835401
-2.27087463948,0.87413580389,1.51515461911,4.82945488464
-1.17421145394,0.195233530958,0.052087529748,0.860091415264
0.572451731605,0.0963312580207,-1.47097955961,-2.26927205411
1.99911491715,3.58742898509,-1.07404664897,3.17136447652
4.14577810269,5.74852671215,-0.387113738336,5.74200100714
1.47244128824,4.19962443921,1.13981917231,-0.717362462232
2.80910447377,1.57072216628,0.246752082941,-2.38672593161
1.40576765932,2.12181989334,1.08368499358,-2.56608940098
-0.737569155139,2.26291762041,1.95061790423,-1.50545287035
0.559094030403,4.55401534747,1.98755081486,1.89518366027
5.70575721595,3.87511307454,1.8444837255,2.4758201909
6.20242040149,4.0262108016,1.32141663614,4.13645672153
7.11908358703,6.26730852866,1.11834954678,7.22709325215
7.67574677257,4.22840625573,-0.364717542579,5.21772978278
7.54240995812,5.10950398279,0.0522153680577,6.1183663134
7.36907314366,3.00060170986,0.539148278698,1.15900284403
7.5957363292,0.33169943692,0.666081189334,2.47963937466
5.07239951475,2.31279716399,1.90301409998,2.03027590528
6.45906270029,5.18389489105,2.07994701062,0.27091243591
6.27572588583,3.85499261811,1.35687992126,2.29154896654
1.88238907138,-0.0939096548209,0.793812831893,2.31218549716
-1.83094774308,-1.28281192775,-0.179254257466,1.96282202779
-2.43428455754,1.33828579931,-1.19232134683,4.51345855842
-4.217621372,1.08938352637,-1.10538843619,4.09409508904
-4.84095818645,-2.24951874656,-1.65845552555,-2.45526838033
-8.17429500091,-5.9784210195,-2.95152261491,-6.25463184971
-4.87763181537,-6.13732329243,-1.08458970427,-6.27399531908
-3.34096862983,-4.60622556537,0.042343206369,-1.46335878845
-5.86430544428,-6.92512783831,-0.810723882991,-3.89272225783
-10.2876422587,-6.93403011124,-0.393790972354,-6.2620857272
-9.8409790732,-7.85293238418,-1.11685806171,-6.17144919657
-6.34431588766,-8.98183465711,-0.939925151073,-4.60081266595
-8.04765270211,-8.01073693005,-0.482992240435,-7.66017613532
-5.69098951657,-6.94963920298,-1.8960593298,-6.5095396047
-0.824326331029,-6.37854147592,-2.21912641916,-4.98890307407
-1.28766314548,-7.12744374885,-1.37219350852,-4.29826654344
-2.51099995994,-6.88634602179,-2.83526059788,-1.62763001282
-1.3243367744,-6.42524829472,-4.40832768724,-2.74699348219
1.44232641115,-7.35415056766,-3.7613947766,-7.25635695157
-0.631010403315,-3.7430528406,-2.09446186596,-3.94572042094
0.37565278223,-1.81195511353,-0.87752895532,-2.71508389031
6.12231596777,-1.98085738646,-1.06059604468,-1.01444735969
8.17897915332,-1.3797596594,-1.60366313404,1.78618917094
6.43564233886,1.37133806766,-1.5467302234,1.81682570157
8.3823055244,1.14243579473,-1.65979731276,3.02746223219
6.75896870994,4.13353352179,-1.56286440212,7.11809876282
4.56563189549,4.98463124886,-1.18593149148,10.8987352934
4.46229508103,4.53572897592,-1.30899858084,7.61937182407
2.10895826657,4.92682670298,0.157934329793,2.5500083547
8.95562145211,6.72792443005,2.27486724043,5.28064488532
13.0722846377,10.7190221571,3.19180015107,11.4512814159
9.4489478232,11.5601198842,3.57873306171,12.4819179466
5.51561100874,8.91121761124,2.25566597235,10.4025544772
4.44227419429,8.87231533831,0.662598882987,9.85319100783
5.67893737983,6.96341306537,-0.0804682063681,7.79382753846
4.67560056537,6.21451079243,0.80646470427,6.86446406908
6.42226375092,5.3556085195,-0.346602385092,5.16510059971
5.59892693645,7.87670624656,0.460330525548,6.93573713033
7.745590122,9.62780397363,0.937263436186,11.566373661
4.39225330754,7.38890170069,0.0841963468229,9.33701019159
3.67891649309,3.61999942776,-0.638870742536,4.46764672221
3.18557967863,1.24109715482,-0.961937831897,0.17828325284
2.20224286417,0.352194881885,-0.855004921257,-0.981080216534
0.598906049712,1.91329260895,0.541927989383,0.969556314092
-0.274430764741,3.26439033601,2.14886090002,2.18019284472
-0.487767579201,-1.43451193692,0.105793810661,-1.65917062465
-1.70110439366,-2.29341420986,-1.3772732787,-2.07853409403
1.09555879189,-1.08231648279,-2.12034036806,-0.847897563403
2.13222197743,-0.281218755728,-2.62340745742,0.0027389672241
0.948885162969,4.26987897134,-1.28647454678,5.86337549785
-0.104451651485,1.5709766984,-2.27954163614,4.25401202848
2.29221153406,-1.92792557454,-2.37260872551,-2.5353514409
0.368874719599,-1.57682784747,-1.50567581486,-5.30471491027
-0.564462094859,-0.485730120407,-1.46874290422,-3.28407837965
1.80220109068,-1.28463239334,-0.491809993586,-2.14344184902
-0.521135723775,-3.99353466628,-2.31487708295,-1.29280531839
-2.50447253823,-4.63243693921,-3.18794417231,-2.56216878777
-5.58780935269,-2.45133921215,-1.36101126167,-2.96153225714
-4.09114616715,-1.95024148509,-3.87407835103,-2.37089572651
-3.1744829816,-3.02914375802,-2.69714544039,-7.71025919589
-6.27781979606,-3.71804603096,-0.0702125297503,-5.40962266526
-4.71115661052,-4.90694830389,-0.99327961911,-5.22898613464
-2.26449342497,-5.49585057683,-0.906346708471,-4.03834960401
-3.62783023943,-0.194752849762,-0.249413797832,2.54228692662
-4.97116705389,-0.0636551226999,0.287519112808,-2.46707654276
-5.10450386834,-1.66255739563,1.26445202345,-4.67644001213
-4.6078406828,-1.60145966857,0.181384934083,-4.2658034815
-3.51117749726,-1.2303619415,0.218317844723,-3.97516695088
-1.63451431171,1.21073578556,1.70525075536,1.55546957975
-0.0378511261733,-0.898166487375,0.892183666001,-0.833893889625
-1.09118794063,0.452931239688,1.60911657664,3.966742641
-3.21452475509,1.54402896675,2.06604948728,5.31737917163
-5.28786156954,-1.37487330618,2.97298239792,-5.43198429775
-4.461198384,-1.58377557912,2.78991530856,-7.01134776712
-5.55453519846,-3.23267785205,1.2668482192,-3.10071123649
-2.44787201292,-2.30158012499,1.07378112984,0.189925294133
0.0187911726243,-0.0304823979277,0.350714040476,-0.789438175241
2.07545435817,0.050615329139,-1.06235304888,-2.12880164461
4.00211754371,-2.0382869438,-0.645420138244,-2.59816511399
0.338780729253,-1.93718921673,2.0815127724,-2.65752858336
-4.1545560852,-1.36609148967,3.74844568304,-3.67689205274
-2.51789289966,-0.574993762602,3.93537859368,-1.03625552211
-2.68122971412,0.73610396446,3.66231150431,0.684381008517
-0.0345665285749,0.0972016915257,0.619244414953,-0.0449824608568
1.37209665697,-0.24170058141,-0.21382267441,-2.86434593023
0.884008654608,-4.22600314712,-3.85046813533,-0.868603461844
0.832567489142,-2.47781197197,-2.55568637062,1.65597180482
-2.09887367633,-5.34962079683,-1.17090460591,-2.91945292851
