39.7515770349,38.6888263081,0.963866279066,40.6833575581
33.1198617469,41.804772449,4.67699313884,42.0643270749
31.648146459,41.0407185898,5.40011999862,43.0152965917
36.206431171,40.4066647306,7.7832468584,40.8062661085
28.0947158831,40.3626108714,7.04637371818,36.6872356253
29.0830005951,36.3285570122,5.37950057796,34.1382051421
29.0912853072,34.854503153,4.45262743774,33.4191746589
32.0195700192,34.0204492939,1.92575429752,33.1701441757
29.4978547313,23.6863954347,-1.2311188427,25.3411136925
27.5361394433,22.6923415755,-2.16799198293,22.8820832093
28.7444241554,16.6582877163,-4.35486512315,18.3630527261
21.6427088674,19.6642338571,-3.07173826337,17.8640222429
18.2709935795,18.1001799979,-4.08861140359,16.7849917597
14.5892782915,9.84612613876,-4.57548454381,7.68596127655
13.0675630036,14.4620722796,-1.75235768403,9.16693079335
15.8858477156,16.7180184204,0.470769175743,13.1379003101
14.1741324277,14.8339645612,-1.40610396448,11.1688698269
11.7424171397,14.849910702,-1.2429771047,10.1598393437
15.6707018518,19.5358568428,3.80014975508,11.4308088606
12.5089865638,11.8618029837,1.43327661486,8.54177837736
1.86727127587,9.06774912447,-3.29359652536,4.69274789416
9.62555598791,10.1736952653,-5.10046966559,5.07371741096
8.29384069996,6.78964140611,-5.87734280581,5.02468692776
5.79212541201,1.95558754692,-4.28421594603,4.14565644456
8.36041012406,1.39153368774,-1.41108908625,1.59662596136
6.50869483611,5.38747982856,1.07203777353,5.95759547816
-3.99302045184,6.79342596937,2.60516463331,2.99856499496
-0.234735739791,6.11937211019,1.82829149309,0.759534511759
-1.23645102774,1.41531825101,-0.308581647136,0.60050402856
-2.56816631569,-3.83873560818,-2.20545478736,-1.38852645464
-5.20988160364,-3.15278946736,-1.77232792758,-1.48755693783
-4.35159689159,-4.36684332654,-1.7392010678,-5.19658742103
-7.77331217955,-8.20089718573,-0.636074208023,-8.03561790423
-13.9150274675,-13.8549510449,-0.142947348246,-12.9146483874
-16.8167427554,-13.2590049041,-2.22982048847,-15.2636788706
-13.2784580434,-15.5430587633,-5.82669362869,-17.1927093538
-9.79017333135,-21.4971126225,-7.49356676891,-19.921739837
-11.3718886193,-17.1911664816,-5.30043990913,-12.6807703202
-5.73360390725,-17.6452203408,-3.45731304935,-11.1198008034
-11.2353191952,-17.7992742,-1.45418618957,-14.3888312866
-14.8670344832,-13.6933280592,1.0989406702,-12.5778617698
-22.7987497711,-14.2373819184,0.832067529984,-17.456892253
-24.3904650591,-19.0514357776,-0.384805610238,-22.3759227362
-20.202180347,-18.2054896367,-0.181678750459,-22.8249532194
-20.203895635,-15.4195434959,-1.66855189068,-19.0539837026
-19.0156109229,-20.8835973551,-6.0154250309,-17.2530141858
-16.0373262109,-15.1876512143,-3.19229817113,-9.85204466902
-9.47904149881,-20.8217050735,-2.89917131135,-14.9710751522
-16.2507567868,-19.5557589327,1.64395554843,-14.7701056354
-17.7424720747,-20.9498127918,2.67708240821,-17.6591361186
-17.0741873627,-21.263866651,2.46020926799,-16.4781666018
-18.1359026506,-20.7779205102,2.36333612777,-17.107197085
-12.3976179386,-20.7619743694,1.67646298755,-18.0962275682
-14.0693332265,-14.9860282286,0.829589847324,-14.8352580514
-17.0610485145,-15.1000820878,0.792716707103,-15.1542885346
-11.3527638024,-18.8141359469,-0.154156433118,-12.4733190178
-24.1544790904,-28.7681898061,-2.39102957334,-23.492349501
-17.9661943783,-25.3122436653,-1.43790271356,-21.8713799842
-17.5979096663,-24.8862975245,0.515224146216,-22.1204104674
-21.3096249542,-21.0703513837,1.818351006,-20.2894409506
-20.4613402422,-17.4144052429,2.92147786578,-16.8884714338
-17.1430555301,-17.528459102,3.12460472555,-18.707501917
-14.3747708181,-12.6425129612,4.42773158533,-14.7965324002
-17.676486106,-11.7765668204,4.59085844511,-11.7155628834
-18.278201394,-15.0506206796,2.14398530489,-15.4745933666
-15.1399166819,-25.1746745388,1.11711216467,-21.6436238498
-15.2716319699,-18.518728398,2.04023902445,-16.932654333
-16.7233472578,-20.5427822571,1.38336588422,-14.6116848162
-17.0750625458,-20.2768361163,3.046492744,-13.4107152994
-16.8067778337,-19.1008899755,0.949619603782,-14.5297457826
-15.5484931217,-21.4949438347,1.02274646356,-14.6187762658
-20.4402084096,-18.6389976939,2.23587332334,-15.317806749
-19.1819236976,-18.2630515531,1.19900018312,-16.9268372322
-25.3536389855,-24.9571054122,-1.59787295711,-21.0458677154
-16.2753542735,-24.1611592714,-1.38474609733,-22.3448981986
-21.0570695614,-27.8552131306,-2.18161923755,-26.2439286818
-24.9387848494,-22.4892669898,-0.56849237777,-23.342959165
-22.1905001373,-19.213320849,1.34463448201,-19.3619896482
-30.5022154253,-21.5473747082,2.55776134179,-17.3310201314
-25.5339307132,-19.5114285673,2.12088820157,-17.5800506146
-22.2456460012,-18.1154824265,0.644015061343,-19.3090810978
-22.3073612891,-19.2795362857,0.477141921123,-18.298111581
-22.6790765771,-20.3135901449,0.570268780901,-19.3771420642
-19.640791865,-25.1676440041,-1.34660435932,-20.6761725474
-22.142507153,-20.3516978633,0.206522500459,-17.8452030306
-20.4842224409,-10.3157517224,2.46964936024,-12.3442335138
-15.0459377289,-11.8698055816,-0.627223779984,-14.203263997
-9.47765301685,-10.3738594408,-0.0440969202064,-12.3322944802
-5.8093683048,-7.33791329999,2.17902993957,-5.00132496337
-9.18108359275,-0.101967159173,2.88215679935,-4.22035544657
-2.6327988807,-4.04602101836,1.65528365913,-5.33938592976
-5.21451416865,-6.04007487754,0.278410518908,-4.85841641296
-4.0962294566,1.57587126328,2.41153737869,-3.13744689616
-3.39794474455,-3.36818259591,-1.38533576154,-5.80647737936
-0.0696600325045,-2.44223645509,0.417791098242,-3.57550786256
0.158624679545,2.87370968573,4.00091795802,-3.03453834576
0.836909391594,0.679655826544,2.5340448178,-4.02356882895
-4.41480589636,4.18560196736,2.66717167758,-2.97259931215
-4.40652118431,0.751548108177,0.940298537354,-2.67162979535
-4.49823647226,3.67749424899,-0.596574602867,-0.920660278556
-0.82995176021,-0.79655961019,-1.42344774309,-2.73969076176
3.28833295184,7.14938653063,-1.52032088331,5.01127875505
8.07661766389,1.91533267144,-2.85719402353,5.86224827185
9.93490237594,3.83127881226,0.365932836248,7.33321778865
12.823187088,12.6972249531,2.51905969603,10.7441873054
11.2614718,11.6931710939,0.832186555805,9.24515682225
9.80975651208,13.8791172347,3.71531341558,10.5361263391
11.7580412241,17.8650633755,0.838440275362,13.6270958559
16.0263259362,8.61100951634,-5.20843286486,12.1380653727
25.0846106482,11.9969556572,-5.26530600508,15.0490348895
29.4528953603,15.412901798,-3.6521791453,18.6400044063
25.2011800723,10.4688479388,-4.10905228552,17.6709739231
23.3794647844,19.3347940796,-1.86592542575,20.9819434399
32.9277494964,22.2607402204,-0.592798565967,21.1129129567
22.0860342085,20.4466863612,-0.689671706188,20.3038824735
19.1843189205,25.5826325021,1.39345515359,23.8548519903
23.5926036326,28.9685786429,0.256582013368,22.1358215071
23.5008883446,21.9645247837,-3.42029112685,19.7167910239
17.5591730567,29.4304709245,-0.217164267075,22.3477605407
15.1274577687,18.6964170653,-3.5840374073,16.4187300575
16.6357424808,19.7823632061,-3.58091054752,19.9696995743
19.1840271928,19.758309347,-1.51778368774,21.7606690911
20.1923119049,26.1442554878,1.13534317204,24.9916386079
20.5305966169,33.5302016286,3.75847003182,27.5126081247
25.318881329,18.9561477694,-0.728403108404,23.6235776415
25.607166041,29.9220939102,3.25472375138,26.7945471583
28.4354507531,30.898040051,1.40785061115,31.0855166751
28.3937354651,27.7239861919,-0.869022529068,29.9864861919
-7.47046875,-9.19198037791,-2.61232194768,-4.28376090118
-0.0790624999981,-9.58423757668,-3.95516431858,-3.65492583776
-0.627656249999,-9.22649477545,-1.91800668949,-0.576090774368
1.62375,-3.67875197423,1.89915093961,6.03274428904
0.455156250002,4.578990827,2.16630856871,7.43157935244
-4.2234375,-0.733266371772,1.27346619781,3.53041441585
-2.49203125,-9.55552357055,0.290623826902,0.879249479251
-2.360625,-4.85778076932,2.517781456,1.47808454266
1.39078125,-1.83003796809,3.9749390851,2.71691960606
9.8521875,-5.13229516686,2.7620967142,5.99575466946
0.743593750001,-3.17455236564,1.64925434329,1.60458973287
-14.395,-5.73680956441,-4.83358802761,-9.17657520372
-15.87359375,-10.0490667632,-4.72643039851,-8.49774014032
-17.8721875,-11.451323962,-3.93927276942,-9.57890507692
-8.91078125,-10.7035811607,-3.92211514032,-10.6400700135
-7.129375,-16.8658383595,-6.13495751122,-13.8512349501
-11.13796875,-12.1480955583,-4.14779988212,-15.0023998867
-12.2865625,-13.430352757,-3.72064225303,-15.6135648233
-11.46515625,-17.5126099558,-4.45348462393,-13.0247297599
-11.22375,-5.8448671546,-1.43632699483,-7.60589469649
-7.34234375,-8.89712435337,-2.35916936573,-10.2970596331
-12.8309375,-11.4793815521,-1.64201173664,-8.25822456968
-8.76953125,-7.88163875092,-1.19485410754,-8.03938950627
-2.498125,-3.17389594969,0.902303521558,-4.25055444287
-6.03671875,-2.65615314846,2.33946115066,-0.64171937947
-1.7953125,-6.24841034723,2.60661877975,-3.18288431606
4.85609375,-0.380667546007,6.29377640885,2.82595074733
4.7675,-0.71292474478,2.91093403795,4.06478581075
-3.09109375,-10.8051819436,-0.661908332955,-0.0363791258569
-0.6596875,-11.8274391423,0.365249296143,-2.12754406244
3.76171875,-2.3696963411,6.89240692524,2.67129100096
7.213125,10.6680464601,7.37956455434,9.23012606436
9.22453125,-1.12421073865,1.77672218343,4.99896112776
8.0059375,7.53353206258,3.20387981253,9.47779619117
9.78734375,9.66127486381,1.86103744163,7.92663125457
6.13875,-1.64098233497,-3.17180492927,0.945466317979
5.91015625,3.05676046626,-3.90464730017,3.25430138138
7.5315625,8.54450326749,-1.20748967108,6.89313644479
10.94296875,2.13224606871,-3.95033204198,4.85197150819
10.894375,6.74998886994,-1.54317441289,7.3608065716
6.48578125,7.39773167117,2.08398321621,7.909641635
6.5671875,11.4554744724,5.86114084531,5.6384766984
4.54859375,9.83321727362,1.51829847441,5.13731176181
3.31,12.2509600748,2.45545610351,9.93614682522
0.661406250001,-4.06129712392,-3.0173862674,2.86498188862
1.3928125,4.7964456773,-4.2702286383,0.483816952015
0.404218750001,8.42418847853,-3.8630710092,1.86265201543
0.265625000001,7.00193127976,-4.13591338011,0.801487078825
-1.68296875,21.119674081,3.73124424899,5.88032214223
3.3084375,12.5374168822,2.36840187809,6.52915720564
6.81984375,9.57515968344,1.31555950719,6.17799226904
6.45125,12.8929024847,2.72271713628,5.96682733245
9.50265625,8.87064528589,0.779874765381,7.54566239585
16.9440625,8.65838808712,-0.0529676055194,8.11449745925
9.17546875,16.5761308883,0.134190023577,9.89333252266
6.286875,9.09387368957,0.601347652673,5.01216758606
1.60828125,2.2416164908,-1.10149471823,0.151002649465
-0.610312499999,15.549359292,1.78566291087,2.26983771287
-4.09890625,6.14710209325,-2.68717946003,-3.80132722372
-0.827499999999,-3.19515510552,-6.35002183094,-6.18249216033
-5.99609375,-7.43741230429,-5.97286420184,-8.78365709692
-6.4746875,1.42033049693,-0.835706572741,-4.97482203351
-1.09328125,11.4680732982,0.551451056355,-0.355986970113
1.558125,8.41581609939,-2.49139131455,-5.6171519067
-2.67046875,-3.98644109939,-5.53423368545,-9.3883168433
2.5709375,8.78130170184,-0.617076056353,-0.829481779896
-0.11765625,9.97904450307,2.11008157274,2.59935328351
-1.17625,0.146787304294,-1.51276079816,-4.30181165308
-2.36484375,5.40453010552,-0.795603169061,-3.66297658968
0.6265625,13.1722729067,2.85155446004,2.63585847372
-2.26203125,0.710015707974,-3.23128791087,2.08469353713
-2.410625,-3.2622414908,-3.96413028177,-0.516471399475
2.62078125,1.43550131043,2.69302734733,0.282363663937
6.1821875,10.5832441117,6.85018497643,2.61119872734
0.94359375,-3.42901308712,2.48734260552,-5.03996620925
1.965,0.808729714109,3.69450023462,-0.581131145853
2.05640625,-1.08352748466,2.17165786372,-0.0022960824499
-2.6521875,4.60421531656,4.02881549281,-3.77346101905
-2.23078125,1.39195811779,1.16597312191,-1.18462595564
1.090625,3.89970091902,3.56313075101,1.88420910777
0.522031250001,1.33744372024,1.14028838011,-2.39695582883
4.9034375,-2.19481347853,-0.602553990793,-5.10812076543
5.69484375,22.8929293227,11.8546036383,9.09071429798
6.80625,11.0806721239,7.2217612674,4.96954936138
3.78765625,0.198414925151,-0.911081103504,0.0483844247865
3.9990625,-0.063842273622,-2.4539234744,0.747219488192
7.48046875,4.5239005276,1.41323415469,3.9860545516
4.451875,3.50164332883,3.42039178379,2.834889615
8.49328125,13.0093861301,2.43754941289,6.3737246784
11.8846875,6.62712893129,-1.18529295802,6.63255974181
8.03609375,11.9048717325,4.94186467108,8.03139480521
3.4175,-4.30738546626,0.849022300177,0.170229868621
2.96890625,12.730357335,5.45617992928,3.73906493202
2.8303125,-5.48189986381,-0.806662441626,-2.28210000457
2.93171875,4.67584293742,0.89049518747,4.52673505883
2.883125,4.77358573865,-0.0223471834306,3.57557012223
1.28453125,9.25132853987,1.22481044567,7.11440518564
5.3959375,13.0490713411,5.49196807476,10.083240249
7.23734375,8.40681414233,3.25912570386,11.4120753125
12.14875,2.58455694355,-1.30371666704,7.72091037585
7.81015625,5.16229974478,2.81344096205,6.60974543925
5.6115625,0.160042546008,-1.40940140885,3.75858050266
7.75296875,1.73778534723,-0.29224377975,1.19741556606
4.434375,-6.64447185154,-2.66508615065,-3.36374937053
3.70578125,0.203270949689,-4.16792852156,3.30508569287
2.7671875,-4.45898624908,-2.89077089246,-0.0560792437245
-2.18140625,2.11875655214,1.73638673664,-3.14724418032
-2.46,-6.83350064663,-4.00645563426,-5.46840911692
-1.49859375,-2.9857578454,-0.719298005166,0.130425946489
-3.0471875,-3.80801504418,1.46785962393,0.329261009894
-6.16578125,0.759727757049,3.70501725303,0.318096073301
-5.124375,-2.85252944172,-0.657825117874,-0.5830688633
-6.78296875,-8.9447866405,-2.16066748878,-2.38423379989
-2.3615625,-13.8370438393,-0.593509859678,-7.40539873649
0.509843749999,-0.729301038043,3.78364776942,5.95343632691
1.44125,1.68844176318,0.430805398515,7.19227139032
0.0326562499995,-5.09381543559,-12.6420369724,-5.63889354628
-6.3059375,-10.0260726344,-7.05487934329,-7.18005848287
-6.55453125,-10.9183298331,-2.29772171419,-5.24122341947
-6.563125,-12.3405870319,-0.130564085095,-4.51238835607
-8.42171875,-15.7128442307,0.346593544004,-3.69355329266
-12.1203125,-14.0451014295,1.4837511731,-8.33471822926
-7.67890625,8.04264137177,4.6109088022,-2.06588316585
-13.9875,-7.489615827,2.95806643129,-5.82704810245
-17.57609375,-1.06187302577,-5.38477593961,-1.94821303904
-11.7046875,-7.44413022455,3.53238168949,-6.69937797564
-8.58328125,-43.6063874233,-8.93046068141,-17.2405429122
-11.311875,-22.7486446221,-7.90330305232,-10.3817078488
-35.1212681686,-26.4530704942,1.34802325581,-26.6044331396
-29.716324477,-19.0637381833,8.23803716123,-25.1517021551
-35.9613807853,-36.3244058723,1.21805106665,-41.1789711706
-36.9064370937,-31.4150735614,5.93806497207,-28.8962401861
-32.6614934021,-22.6157412505,7.74807887749,-30.9735092016
-27.6565497104,-35.2064089395,-2.64190721709,-36.3807782171
-25.0916060188,-33.5270766286,-5.30189331167,-26.7780472327
-22.7266623272,-28.9577443177,2.65812059375,-21.3853162482
-17.4417186355,-19.7084120067,1.36813449917,-15.8225852637
-22.2267749439,-28.6590796958,-0.171851595407,-19.5598542792
-20.1718312523,-7.28974738486,2.52816231001,-12.2471232948
-19.7568875607,20.1695849261,8.20817621543,-8.87439231026
-22.241943869,-21.841082763,-0.231809879146,-19.3616613258
-19.0970001774,-33.5517504521,-5.37179597373,-18.2389303413
-21.9820564858,-37.3824181411,-4.25178206831,-30.9461993568
-20.9871127941,-22.2630858302,-1.97176816288,-16.1634683723
-19.0021691025,-7.15375351927,4.08824574254,-15.1907373879
-19.6572254109,1.88557879166,4.30825964796,-23.2780064034
-13.5122817192,-26.7250888974,-9.03172644662,-23.3652754189
-11.3273380276,-30.7357565865,-10.0317125412,-23.1225444344
-12.132394336,-9.84642427554,-6.70169863578,-19.3098134499
-5.61745064434,-19.3670919646,-4.04168473036,-15.4570824655
-0.882506952708,34.1322403463,14.8283291751,9.16564851903
-11.5475632611,-4.09842734275,1.54834308048,-11.5516204965
-6.66261956945,-24.3290950318,-3.3216430141,-17.188889512
-5.52767587781,-14.9897627209,-3.61162910868,-12.4661585275
-9.46273218618,-27.7804304099,-12.2616152033,-11.313427543
-6.24778849455,1.44890190098,-8.37160129784,-3.24069655856
-3.88284480292,-22.9717657881,-12.2515873924,-20.2979655741
-2.88790111129,-7.71243347715,-4.761573487,-7.2252345896
-3.67295741966,-18.3331011662,-6.33155958158,-10.2225036051
-2.57801372802,-23.1037688553,-6.24154567616,-4.74977262064
-2.29307003639,2.93556345564,-1.54153177074,-6.98704163616
0.581873655239,20.0448957666,6.07848213468,4.86568934831
-4.92318265313,-4.97577192249,-7.0115039599,-5.9815796672
-0.258238961498,-2.69643961156,-8.98149005448,-1.03884868272
-1.98329526987,9.61289269937,1.81852385094,4.41388230176
-2.58835157824,5.4222250103,-4.80146224364,1.88661328625
-0.603407886603,-15.2084426788,-9.64144833822,-11.1906557293
2.67153580503,-15.3491103678,-8.2814344328,-3.9279247448
6.37647949666,14.4102219431,-6.67142052738,9.09480623969
9.86142318829,7.96955425403,-4.10140662196,11.7775372242
12.0063668799,13.528886565,-5.68139271654,16.3602682086
10.3913105716,24.2282188759,2.04862118888,14.4529991931
11.0762542632,15.2775511868,-7.3113649057,18.4857301776
12.7711979548,17.1968834978,-9.65135100028,17.6284611621
7.71614164645,17.1262158087,-1.38133709486,12.3311921466
12.2710853381,9.71554811962,0.228676810564,7.19392313105
13.5560290297,-4.59511956945,-0.461309284015,9.77665411554
17.2909727213,20.0542127415,-6.6512953786,14.6693851
22.355916413,32.7435450524,-0.0612814731758,18.4721160845
25.9008601046,18.3828773634,6.37873243225,24.574847069
25.4258037962,11.4922096743,4.97874633767,21.1475780535
20.9807474879,16.4315419852,4.12876024309,17.6203090379
20.9056911795,4.75087429615,-1.32122585149,14.0430400224
22.5106348711,17.6402066071,-0.411211946073,23.3357710069
20.2255785628,23.989538918,2.67880195935,24.0985019914
19.9305222544,31.9988712289,7.19881586477,23.2012329759
17.595465946,23.8382035399,9.13882977019,22.0139639603
19.6704096377,9.36753585081,-1.11115632439,16.5566949448
18.2153533293,9.20686816174,3.97885758103,20.7194259293
20.4702970209,12.5962004727,3.31887148645,24.0921569138
16.6152407126,12.1855327836,-0.531114608131,10.7248878983
21.0401844042,48.9948650945,9.77889929729,30.2376188828
23.1951280958,37.0341974055,6.55891320271,29.6303498672
20.5600717874,23.9435297164,3.58892710813,29.5330808517
20.6650154791,13.2328620273,1.06894101355,24.3258118362
21.1099591707,22.4621943383,4.77895491897,22.0285428207
23.0649028623,36.3315266492,5.51896882439,24.3712738052
21.119846554,11.1608589601,-2.30101727019,21.0840047896
23.7547902456,29.1701912711,5.74899663523,29.9367357741
25.3997339372,25.049523582,4.24901054065,31.5394667586
23.2746776289,21.2188558929,-3.46097555393,23.6221977431
26.0796213205,21.0381882039,0.899038351494,23.1749287276
28.3345650121,26.9975205148,1.56905225691,27.527659712
24.7095087038,30.8368528257,11.0690661623,33.5903906965
29.7344523954,22.2661851367,8.59908006775,31.693121681
29.059396087,51.4255174476,25.0890939732,40.1858526655
32.6243397787,32.3548497585,8.4191078786,30.80858365
34.6592834703,12.5941820694,2.51912178401,24.8713146344
33.7142271619,26.4635143804,7.09913568944,29.2040456189
31.5591708536,30.6628466913,7.23914959486,29.2667766034
32.5841145452,29.8921790022,9.82916350028,31.1695075879
30.9890582368,24.2515113132,4.5391774057,29.4422385724
28.6440019284,28.0908436241,6.16919131112,29.5249695569
26.0189456201,24.840175935,12.2992052165,19.2477005413
25.1838893117,24.729508246,5.21921912196,23.1104315258
23.8188330033,22.3688405569,8.16923302738,21.6131625103
17.463776695,19.3481728678,4.9492469328,22.3958934948
20.1187203866,25.0375051788,4.09926083822,28.2686244793
24.9236640782,40.2768374897,10.0692747436,33.7513554637
24.3186077699,23.3561698006,-0.0307113509407,22.2840864482
25.9635514615,15.3255021116,0.19930255448,22.8168174327
23.4084951531,7.4648344225,-1.4806835401,17.1095484172
18.2434388448,-1.32583326657,-5.30066963468,15.1022794017
15.5983825364,30.3034990444,2.83934427074,19.7250103861
14.543326228,-2.33716864471,-11.6406418238,4.40774137063
11.3882699197,3.95216366622,-5.45062791842,8.70047235511
12.6132136113,26.2114959772,3.159385987,21.2432033396
15.1781573029,20.2608282881,0.719399892421,18.2259343241
7.01310099455,12.880160599,-0.530586202158,13.3686653086
5.12804468618,17.11949291,6.62942770326,10.621396293
-2.16701162219,-0.101174779115,-6.54055839132,0.894127277519
-7.42206793055,1.20815753182,-9.3305444859,-1.85314173801
-8.92712423892,12.8274898427,3.05946941952,5.11958924647
-12.6121805473,-1.77317784632,1.42948332494,2.52232023095
-15.9272368557,3.15615446461,2.47949723036,-3.02494878456
-12.402293164,-7.95451322445,1.13951113579,-8.92221780009
-19.8473494724,-15.8351809135,-10.3704749588,-14.4694868156
-23.5224057808,-19.5958486026,-7.42046105337,-22.2967558311
-17.4674620891,-13.2265162917,0.379552852044,-20.2140248466
-17.5425183975,6.23281601927,6.41956675746,-5.93129386216
-18.7575747059,-14.6078516698,0.839580662885,-10.7185628777
-14.9826310142,-8.01851935886,-0.730405431696,-16.2658318932
-15.8376873226,-14.5491870479,4.52960847373,-23.9731009087
-22.072743631,0.930145263002,0.859622379146,-28.8903699242
-27.7377999393,-41.8105224261,-13.6003637154,-26.5976389397
-23.3128562477,-48.6311901151,-9.21034981001,-35.9449079553
-29.1079125561,-15.2718578042,3.36966409541,-30.0421769708
-32.1129688644,-55.6225254933,-14.4203219992,-40.1494459863
-35.6080251728,-51.7131931823,-10.3303080938,-37.0867150018
-41.5530814812,-26.9338608714,-2.43029418833,-44.5039840173
-44.5081377896,-61.1445285605,-4.24028028291,-58.5712530329
-46.1431940979,-68.5451962495,-3.79026637749,-51.8185220484
-56.2782504063,-57.8058639386,-1.60025247207,-60.4757910639
-58.4933067147,-78.3765316277,-6.14023856665,-76.4730600794
-58.788363023,-50.4871993167,-1.11022466123,-61.0303290949
-64.0434193314,-63.1878670058,-9.22021075581,-65.0775981105
9.63950581395,4.98359375,-2.42031976745,15.612681686
10.9401238326,3.79188976378,2.02646799464,7.34431268311
13.8507418513,10.5301857776,-4.05674424328,0.495943680173
3.83135986999,-5.26151820866,-5.53995648119,4.54757467724
5.60197788867,47.0967778051,0.936831280893,10.6492056743
2.38259590734,-5.1949261811,0.52361904298,3.14083667139
5.94321392602,-12.6066301673,-2.51959319493,3.47246766846
6.7238319447,11.9716658465,2.72719456715,6.22409866552
11.1244499634,1.80996186024,0.843982329237,8.3057296626
6.12506798206,-1.93174212598,0.990770091323,8.47736065966
4.73568600073,-3.0134461122,0.917557853409,1.74899165674
4.69630401941,12.2848499016,6.1443456155,2.89062265381
16.0969220381,17.3931459154,-9.70886662242,14.9822536509
12.1175400568,22.4114419291,-1.96207886034,15.3238846479
10.4381580754,-18.5702620571,-2.81529109825,7.56551564502
12.5487760941,0.818033956693,6.05149666384,9.72714664209
10.5593941128,9.61632997047,9.90828442592,4.74877763916
6.20001213148,8.30462598425,2.88507218801,2.26040863623
5.28063015016,-9.73707800197,0.851859950095,4.7920396333
9.40124816883,-7.35878198819,6.71864771218,-1.60632936963
10.0218661875,-1.65048597441,4.47543547427,3.69530162744
4.68248420619,8.64781003937,6.03222323635,2.68693262451
9.67310222487,2.59610605315,2.60901099844,11.2985636216
5.69372024355,4.75440206693,-1.84420123948,4.37019461865
-0.135661737776,-0.0873019192913,-3.21741347739,2.26182561572
4.1349562809,-4.80900590551,-0.490625715305,-0.456543387205
8.15557429958,-10.9407098917,0.57616204678,-5.91491239014
5.45619231826,-5.01241387795,-4.34705019113,0.496718606933
7.15681033694,-2.63411786417,-1.29026242905,-0.351650395998
8.38742835561,-8.18582185039,-1.59347466696,-0.480019398929
4.62804637429,3.29247416339,4.84331309512,0.701611598146
2.86866439297,0.0607701771651,1.41010085721,1.23324259521
4.29928241165,4.22906619095,2.16688861929,3.31487359229
8.78990043032,12.9573622047,0.133676381382,6.10650458935
10.110518449,-0.0143417814961,-0.839535856534,-1.15186441358
7.50113646768,2.07395423228,-0.442748094447,3.48976658349
7.05175448636,12.9922502461,-0.425960332361,6.35139758056
7.92237250504,17.6605462598,4.60082742972,7.09302857763
4.93299052371,-4.75115772638,-6.47238480819,1.0346595747
2.87360854239,16.5571382874,7.46440295389,3.73629057177
0.35422656107,3.74543430118,2.12119071598,4.67792156884
-1.45515542025,-7.04626968504,-3.32202152193,-0.440447434084
-1.61453740157,-2.98797367126,-2.92523375985,0.211183562984
-3.1539193829,-0.98967765748,-2.25844599776,-8.12718543994
-3.37330136422,1.3986183563,-1.39165823568,2.24444555712
-3.37268334554,-3.66308562992,-3.29487047359,-0.683923445802
-0.0920653268631,1.06521038386,-0.908082711503,1.79770755127
-4.60144730819,-6.66649360236,-3.51129494942,-2.85066145166
0.249170710493,-5.97819758858,-3.47450718733,-2.42903045459
-1.69021127083,-3.8399015748,-1.01771942525,-0.957399457526
-9.71959325215,-6.92160556102,0.489068336838,-7.01576846046
-6.06897523347,-3.46330954724,-1.30414390108,-4.64413746338
-5.2683572148,-9.60501353346,-2.98735613899,-1.13250646631
-11.5477391961,-11.1767175197,-3.1005683769,-7.91087546924
-11.8771211774,-7.49842150591,-6.68378061482,-8.05924447218
-11.3465031588,-0.710125492126,-2.64699285273,-0.397613475106
-10.2858851401,0.948170521653,0.409794909352,-4.23598247803
-7.56526712141,-9.16353346457,-2.79341732856,-10.544351481
-11.1846491027,-4.34523745079,-2.48662956648,-6.25272048389
-13.9540310841,-8.06694143701,-1.90984180439,-11.1510894868
-14.6634130654,-7.51864542323,-1.1530540423,-11.2594584898
-14.2627950467,-13.8103494094,-5.47626628022,-10.1178274927
-13.972177028,-13.2620533957,-7.30947851813,-11.5061964956
-16.6315590093,-9.70375738189,-6.74269075605,-10.3845654985
-20.4309409907,-5.06546136811,-5.13590299396,-9.87293450147
-21.570322972,-8.02716535433,-3.64911523188,-9.9213035044
-24.4297049533,-11.0688693406,-3.00232746979,-12.8296725073
-27.4390869346,-14.9305733268,-3.9455397077,-11.8380415103
-26.4984689159,-6.82227731299,-3.74875194562,-11.3964105132
-19.8178508973,-9.11398129921,-0.451964183532,-12.8647795161
-15.6772328786,-5.28568528543,0.844823578554,-14.7031485191
-15.3466148599,-3.01738927165,-1.01838865936,-9.90151752198
-13.6459968412,-1.14909325787,-0.0916008972745,-4.39988652491
-14.4753788226,-1.76079724409,2.34518686481,-6.13825552783
-10.4947608039,-4.97250123032,2.9419746269,-12.3766245308
-12.5641427852,4.87579478346,4.53876238898,0.0950064662975
-12.1235247665,2.13409079724,3.10555015107,-5.49336253662
-15.2729067478,5.19238681102,6.29233791315,-8.62173153956
-14.6422887292,-3.9393171752,2.26912567524,-8.67010054248
-16.5916707105,-9.90102116142,-1.78408656267,-10.8784695454
-16.6310526918,-7.58272514764,2.63270119941,-11.3468385484
-15.5804346731,-5.85442913386,4.2994889615,-8.46520755128
-10.4798166545,-0.0961331200797,3.89627672358,-3.41357655421
-8.82919863578,-1.8078371063,6.08306448567,1.00805444286
-10.8585806171,-11.5195410925,3.05985224775,-10.1003145601
-11.2379625984,22.6687549213,7.29664000984,-9.518683563
-11.0573445797,-1.34294906496,2.30342777193,-2.04705256593
-12.0867265611,-14.2746530512,-1.83978446599,-9.09542156885
-6.80610854239,-8.6963570374,-2.0829967039,-16.0637905718
-5.44549052371,-9.26806102362,-3.90620894182,-9.45215957471
-4.81487250504,-2.45976500984,-2.11942117973,-3.97052857765
-4.36425448636,-8.78146899606,-0.652633417647,-11.0588975806
-0.433636467681,1.91682701772,4.43415434444,-0.417266583507
1.866981551,-10.5448769685,4.21094210653,-5.40563558643
3.36759956967,8.57341904527,10.9777298686,0.425995410638
5.93821758835,11.5617150591,8.7745176307,7.6276264077
-4.38116439297,10.1700110728,13.5313053928,1.00925740477
-7.06054637429,4.49830708661,9.63809315487,-0.999111598154
-1.58992835561,6.56660310039,6.38488091695,2.82251939892
-2.43931033694,-23.4151008858,-5.48833132096,-9.76584960401
1.52130768174,-4.22680487205,2.79845644113,-0.264218606935
1.16192570042,-1.26850885827,2.07524420321,-6.36258760987
4.9625437191,-1.28021284449,-0.517968034703,-11.0609566128
6.89316173778,-12.1519168307,-3.25118027262,-9.66932561573
4.63377975645,26.9563791831,8.94560748947,13.9523053813
3.18439777513,8.59467519685,-4.13760474844,-1.60606362158
0.32501579381,-17.0770287894,-7.34081698636,-14.2144326245
-6.65436618751,13.5712672244,1.52597077573,-1.45280162745
-6.85374816883,2.18956323819,-0.717241462187,-3.12117063038
-2.91313015016,3.35785925197,-1.5504537001,-1.86953963331
-1.86251213148,-21.1038447343,-9.64366593802,-10.6779086362
-1.0818941128,-13.2655487205,-2.47687817593,-10.7962776392
1.91872390588,-14.7072527067,-1.03009041385,-10.1646466421
1.73934192455,2.00104330709,-0.253302651759,-1.71301564503
9.44995994323,1.20933932087,-2.75651488967,4.02861535204
19.6705779619,2.71763533464,-2.04972712759,14.4002463491
10.5711959806,2.52593134842,-0.362939365501,5.70187734618
11.6218139993,11.7842273622,1.15384839659,10.6935083432
16.7924320179,19.352523376,3.07063615867,19.2951393403
20.6130500366,25.0408193898,5.98742392075,21.4567703374
18.7136680553,6.56911540354,-1.61578831716,20.6084013345
20.924286074,6.06741141732,-3.89900055507,15.3100323315
17.2149040927,2.6557074311,1.67778720701,11.8916633286
21.1555221113,6.13400344488,-0.535425030901,17.4632943257
28.21614013,11.7122994587,-7.33863726882,22.0449253227
27.5767581487,-7.29940452756,-8.82184950673,18.8665563198
29.7873761674,16.1188914862,-6.76506174464,28.3181873169
29.317994186,30.5471875,4.71172601744,37.929818314
41.8451199128,50.8489098837,-5.61730377907,42.4444295058
37.6239812134,53.0091103678,-8.38466538295,37.8561781553
36.452842514,14.579310852,-15.2520269868,30.7979268048
30.2417038146,19.7795113361,-12.4493885907,27.0896754543
23.7105651151,41.3197118202,-7.74675019456,29.4114241039
24.7094264157,40.4499123043,-5.94411179844,25.2731727534
24.2582877163,24.6401127884,-4.57147340231,18.5949214029
21.8471490169,27.3603132725,-11.9988350062,24.0066700524
19.8460103175,-8.51948624336,-19.6961966101,1.15841870192
14.2548716181,18.7607142408,-7.97355821393,12.4301673514
15.9337329187,28.4809147249,-2.9609198178,23.8719160009
20.7725942192,5.34111520898,-7.30828142167,9.61366465046
21.6914555198,20.0013156931,-2.42564302555,18.5954133
19.7603168204,30.4715161772,-1.94300462942,25.8871619495
23.199178121,21.9717166613,-4.12036623329,27.118910599
19.7980394216,37.4419171454,3.96227216283,22.7806592485
19.6869007222,0.822117629557,-12.525089441,1.27240789803
23.1257620228,-23.9476818863,-9.11245104491,0.0441565475485
15.5446233233,9.90251859779,-3.10981264879,21.3459051971
8.70348462393,23.2027190819,-10.6571742527,15.2676538466
-0.957654075488,10.092919566,-8.05453585653,5.3194024961
-2.1687927749,1.59312005013,-4.2818974604,1.6811511456
1.45006852568,2.41332053424,-3.88925906428,5.81289979512
0.83892982627,-8.85647898164,-9.22662066815,-0.775351555363
-1.87220887314,-0.296278497526,-3.78398227202,-6.56360290584
-0.443347572558,5.61392198659,1.6186561241,1.45814574367
-2.16448627197,-12.3558775293,-8.67870547977,-3.39010560681
0.644375028614,1.60432295482,-1.01606708364,-3.1883569573
-6.3767636708,-4.81547656107,-1.63342868751,-9.13660830779
-8.78790237021,-17.335276077,-8.19079029139,-8.13485965827
-8.72904106963,0.154924407162,-1.02815189526,-9.02311100876
-8.22017976904,14.0351248913,14.0244865009,-1.91136235924
-10.5713184685,-7.54467462461,-4.47287510301,-13.3596137097
-12.5424571679,-31.2644741405,-10.1102367069,-25.0678650602
-8.70359586729,-11.0842736564,-0.867598310751,-19.6661164107
-9.1047345667,-12.7040731723,-2.13495991463,-15.4843677612
-11.9958732661,-24.2638726882,-2.7023215185,-21.6726191117
-9.42701196553,5.74632779596,5.69031687763,-8.62087046215
-10.8181506649,-20.3434717199,-0.337044726244,-10.2891218126
-17.2992893644,-6.66327123581,10.0955936699,-12.5073731631
-15.2504280638,-13.1130707517,6.36823206601,-10.9856245136
-15.4715667632,-30.5528702676,-4.56912953786,-19.6138758641
-12.7527054626,-20.1226697835,-0.846491141734,-12.0821272146
-19.593844162,-13.5724692993,2.15614725439,-17.6203785651
-18.5749828614,-0.102268815234,3.93878565052,-8.74862991554
-19.4661215608,-28.3420683311,-3.58857595335,-16.126881266
-15.1972602603,-35.031867847,-7.63593755722,-12.1251326165
-11.2483989597,-29.7116673629,-3.2932991611,-13.043383967
-20.6895376591,-14.4114668788,4.24933923503,-14.0616353175
-19.5006763585,-15.8712663947,5.33197763115,-23.609886668
-20.9418150579,-20.2510659105,2.17461602728,-19.4481380185
-24.6729537573,-17.6708654264,7.61725442341,-11.3863893689
-19.1540924567,-34.5306649423,-1.07010718046,-25.0146407194
-15.0252311562,-18.9304644582,2.20253121566,-14.2028920699
-18.1363698556,-22.0002639741,5.57516961179,-21.5511434204
-19.037508555,-18.83006349,14.0778080079,-19.9893947709
-17.6086472544,8.46013699414,13.010446404,-14.8176461214
-21.4997859538,-18.7796625217,6.83308480017,-25.7958974718
-19.1109246532,-23.6994620376,15.5857231963,-18.7141488223
-22.9420633526,-25.3592615535,9.69836159243,-8.85240017283
-15.4132020521,-18.5890610694,5.80099998855,-14.3706515233
-9.53434075146,-37.7488605853,2.99363838468,-12.5189028738
-10.0054794509,-25.4386601012,9.84627678081,-17.1471542243
-10.6366181503,-15.7684596171,7.81891517693,-14.4854055748
-12.5877568497,-3.12825913294,7.81155357306,-14.6136569252
-18.2488955491,-8.06805864883,12.6241919692,-7.71190827573
-14.5200342485,-12.3678581647,9.57683036531,-7.87015962622
-8.93117294795,14.8323423194,22.1494687614,-0.338410976707
-12.2623116474,-8.37745719648,16.6421071576,-1.27666232719
-11.9534503468,-16.3372567124,12.5347455537,-4.96491367767
-12.9445890462,-13.3770562283,14.7873839498,-4.00316502815
-14.2657277456,-26.4768557441,9.21002234595,-8.31141637864
-12.766866445,-21.05665526,5.04266074208,-16.1796677291
-15.4780051444,-12.1364547759,8.9852991382,-13.0479190796
-11.1891438438,-15.2262542918,8.01793753433,-7.2861704301
-11.1302825433,-5.51605380768,17.8805759305,-12.7344217806
-10.4414212427,-1.94585332357,18.8532143266,-9.54267313107
-12.5925599421,-14.2156528395,9.83585272271,-9.65092448156
-2.8936986415,-20.5754523553,12.4884911188,-2.02917583205
-1.35483734092,17.6847481288,24.451129515,-2.87742718252
-9.53597604033,-13.8550513871,8.95376791109,-14.455678533
-8.19711473975,-11.244850903,16.1864063072,-0.283929883495
-7.05825343916,-24.8646504189,8.83904470335,-8.24218123397
-6.77939213857,-7.57444993476,7.83168309948,-1.58043258447
-8.86053083799,4.06575054935,12.6443214956,-1.57868393495
-7.8816695374,30.9959510335,14.2669598917,15.1330647146
-14.4728082368,-5.93384848242,15.3495982879,0.274813364078
-11.1039469362,1.45635200169,12.252236684,-8.4434379864
-10.5050856356,-17.0334475142,-0.835124919888,-12.0816893369
-7.78622433506,-0.963247030077,6.50751347624,-5.41994068737
-0.497363034471,5.61695345404,12.2901518724,5.24180796213
-7.33850173389,44.5771539382,13.4627902685,13.6035566117
-6.9896404333,-1.16264557773,0.915428664621,-7.92469473883
-1.85077913271,5.51755490638,1.97806706075,4.21705391069
-4.98191783213,-7.2522446095,1.83070545687,-5.6411974398
0.756943468458,8.33795587461,4.813343853,1.75055120972
-0.164195230956,4.77815635873,-1.54401775087,3.32229985922
3.74466606963,14.7683568428,-10.2513793547,1.08404850874
0.0535273702153,3.62855732695,0.561259041384,-0.454202841742
2.3123886708,1.16875781107,-0.12610256249,-0.832454192227
4.63124997139,6.47895829518,3.43653583364,-5.08070554271
-3.90988872803,8.5991587793,-2.25082577024,1.06104310681
1.46897257256,-2.38064073659,-5.40818737411,-4.83720824368
-1.53216612685,6.07955974753,-5.37554897798,-5.37545959417
-1.57330482627,9.64976023164,3.77708941815,0.326289055345
3.33555647432,-1.78003928424,-2.31027218573,6.83803770486
3.5344177749,3.52016119987,-6.2776337896,2.98978635438
7.86327907549,4.87036168399,-14.6049953935,-1.43846499611
5.71214037608,20.4905621681,-3.08235699735,-4.60671634659
6.76100167666,1.11076265222,-2.48971860122,-0.00496769708116
10.5598629772,13.2109631363,-2.54708020509,13.2567809524
12.5687242778,0.381163620445,-11.694441809,5.00852960195
15.9375855784,32.5113641046,0.898196587164,19.4902782515
17.406446879,-2.44843541133,-9.43916501671,13.792026901
11.8853081796,-5.55823492721,-15.9565266206,0.243775550502
10.3441694802,7.6919655569,-6.84388822446,8.60552420001
8.03303078076,16.732166041,-5.81124982833,22.1972728495
7.81189208135,8.99236652513,-15.5886114322,10.659021499
12.7407533819,6.48256700925,-21.1159730361,12.2707701486
13.1196146825,-2.10723250664,-14.4933346399,9.45251879808
20.1084759831,9.73296797748,-14.5206962438,10.3042674476
26.4573372837,32.0631684616,-10.8280578477,22.5960160971
23.9761985843,1.61336894571,-18.3054194516,16.9477647466
22.5150598849,17.6735694298,-12.6327810554,20.3195133961
28.5739211855,6.49376991393,-15.3901426593,19.4712620456
37.732782486,19.833970398,-13.6575042632,30.1930106952
32.1416437866,25.5541708822,-18.0748658671,19.3547593447
28.2005050872,36.0943713663,-11.6922274709,26.6865079942
-7.46541061046,2.79356468023,-0.950316133723,-2.30313590118
-2.9990015851,0.57746031519,8.20834411051,1.95798508741
-0.95259255974,-5.82864404985,0.107004354739,-9.87089392398
-6.49618353438,-38.6647484149,-8.35433540103,-20.6497729354
-5.06977450902,-14.5208527799,-3.3856751568,-12.4486519468
-5.72336548366,-18.426957145,2.08298508744,-17.3475309582
-6.68695645829,-6.31306151002,7.57164533167,-7.71640996957
-3.61054743293,-1.36916587507,3.8903055759,-10.535288981
-2.97413840757,4.93472975989,4.50896582013,0.875832007623
-3.41772938221,4.40862539485,5.10762606436,-3.86304700377
-5.77132035685,-0.847478970197,1.9662863086,-8.63192601516
-4.81491133148,-18.0035833352,-4.19505344717,-9.55080502656
-4.64850230612,-1.48968770028,9.02360679706,-2.44968403797
-5.39209328076,10.7442079347,3.90226704129,-3.98856304937
-6.3556842554,5.46810356963,7.40092728552,4.99255793924
-8.01927523004,12.5819992046,16.5295875298,3.01367892783
-8.78286620468,-5.43410516046,5.53824777399,-9.01520008357
-4.38645717932,-8.3302095255,-9.80309198178,-9.50407909496
-5.15004815395,8.52368610946,0.53556826245,2.55704189364
-7.10363912859,-9.82241825558,-1.35577149332,-8.09183711776
-7.52723010323,-1.01852262063,1.67288875091,-7.15071612916
-3.78082107787,-8.27462698567,-1.95845100485,-12.4995951406
-3.33441205251,5.67926864929,-9.73979076062,-3.94847415196
-2.91800302715,-9.71683571576,-2.89113051639,-4.65735316335
-4.91159400178,-27.1729400808,-2.68247027216,-10.9962321748
-5.52518497642,2.15095555416,7.56618997207,7.04488881384
-4.51877595106,-4.63514881088,4.71485021631,5.40600980245
-5.0423669257,13.1087468241,0.103510460538,-1.79286920895
-5.33595790034,-3.60735754097,-0.237829295229,-7.48174822034
-4.31954887498,-6.86346190601,3.230830949,-5.80062723175
0.436860150386,21.1204337289,11.3194911932,16.7704937569
-0.596730824253,5.9243293639,0.378151437466,5.94161474545
-1.22032179889,0.858224998856,-0.103188318302,2.65273573405
-5.25391277353,0.0121206338135,-2.19452807407,-3.13614327735
-5.63750374817,-0.50398373123,-0.12586782984,-6.56502228874
-7.10109472281,-23.8100880963,-3.82720758561,-9.69390130014
-1.82468569744,4.29380753868,-8.28854734138,1.87721968846
-6.34827667208,-4.71229682636,-1.94988709714,-8.56165932294
-0.431867646721,-8.0684011914,-2.94122685291,-2.49053833434
-1.86545862136,-13.7845055564,-6.79256660868,-7.23941734574
-5.519049596,-8.86060992149,-5.24390636445,0.511703642864
-3.17264057064,12.3332857135,-3.77524612021,2.12282463146
-3.91623154527,0.177181348426,-5.82658587598,7.90394562007
-2.55982251991,-11.1089230166,-7.95792563175,-3.27493339134
1.09658650545,10.7549726183,5.73073461248,4.40618759727
0.94299553081,-0.0611317467028,-0.800605143288,-0.172691414125
3.94940455617,-9.78723611175,-8.48194489905,-0.471570425529
4.72581358153,-1.37334047679,-7.53328465482,0.12955056307
1.41222260689,1.76055515817,-5.37462441059,2.47067155167
-1.25136836774,5.58445079313,0.0940358336393,-0.578207459723
-4.27495934238,6.78834642808,0.912696077872,-4.97708647112
-3.33855031702,-2.07775793696,-4.7086436779,-1.83596548253
-1.11214129166,-16.493862302,-9.88998343366,-13.6648444939
7.7542677337,-2.13996666705,-4.98132318943,4.90627649468
4.51067675907,17.4039289679,-0.0926629452006,16.0373974833
3.38708578443,1.28782460287,-7.34400270097,3.24851847188
8.61349480979,7.10172023782,-0.695342456738,9.09963946049
8.69990383515,20.0656158728,2.53331778749,21.0307604491
6.43631286051,27.9195115077,11.1219780317,18.1218814377
8.10272188587,-3.50659285731,2.58063827596,12.8830024263
2.05913091123,15.4973027777,1.57929852019,6.06412341489
10.7555399366,-1.64880158739,-3.19204123558,-2.48475559651
14.521948962,6.89509404756,-1.79338099135,7.68636539209
10.4283579873,5.57898968252,-6.40472074711,0.257486380695
7.40476701268,2.81288531748,-0.13606050288,4.85860736929
12.901176038,13.2067809524,-0.0974002586499,7.91972835789
16.3375850634,6.51067658739,0.691259985582,5.4108493465
14.9639940888,0.0945722223496,-7.05007977019,7.86197033509
13.5304031141,4.81846785731,-4.67141952595,9.9630913237
10.5568121395,1.51236349226,-4.34275928172,6.7142123123
14.5932211649,8.21625912722,0.0459009625083,9.32533330089
20.4896301902,18.7101547622,2.89456120674,17.3064542895
19.6760392156,25.6140503971,7.53322145097,25.1475752781
22.1124482409,14.5779460321,2.51188169521,21.2986962667
20.4688572663,11.851841667,5.48054193944,14.8498172553
23.3952662917,10.845737302,0.419202183668,10.9809382439
23.991675317,4.63963293696,3.7778624279,15.9120592325
15.8680843424,39.2435285719,7.59652267213,21.5631802211
11.9744933677,7.48742420688,-0.444817083635,2.43430120971
10.1609023931,0.891319841832,-3.4061568394,6.89542219831
9.23731141847,9.21521547679,1.37250340483,7.11654318691
9.43372044383,4.11911111175,4.15116364906,10.1476641755
8.96012946919,2.6430067467,4.67982389329,8.66878516411
8.59653849455,5.79690238166,3.14848413752,12.0399061527
6.38294751991,4.02079801662,10.0471443818,7.36102714131
3.61935654527,4.80469365157,-1.30419537401,2.56214812992
2.23576557064,4.44858928653,-0.375535129779,6.17326911852
6.022174596,-9.69751507851,-4.18687488555,-0.935609892884
10.0685836214,-1.02361944355,-1.59821464132,13.3855110957
6.28499264672,2.4502761914,-4.19955439708,13.9366320843
1.05140167208,-15.4758281736,-4.75089415285,-5.47224692708
2.71781069745,12.0880674613,-0.62223390862,3.84887406152
3.87421972281,23.9619630963,7.27642633561,20.2499950501
0.360628748167,-5.20414126877,-4.51491342016,-4.40888396127
0.64703777353,-6.73024563381,-8.88625317592,2.83223702733
0.663446798891,0.743650001144,-4.98759293169,7.99335801593
1.65985582425,-4.6824543639,-2.62893268746,2.86447900453
2.84626484961,-11.1185587289,-4.20027244323,0.135599993133
8.89267387498,14.585336906,5.198387801,10.1667209817
5.93908290034,0.379232540971,-0.732951954766,4.30784197033
6.2454919257,7.93312817593,-3.92429171053,12.9989629589
-7.61809904894,-1.54297618912,1.5243685337,-2.51991605246
-4.34169002358,2.40091944584,-0.946971222071,-3.52879506387
-6.66528099822,-9.8751849192,-2.83831097784,-4.55767407527
-6.22887197285,-5.55128928424,3.73034926639,-3.02655308666
-5.63246294749,-7.31739364929,1.20900951063,2.49456790194
-14.5260539221,22.0565019857,7.65766975486,-0.84431110946
-9.18964489677,-20.0296023794,-9.60367000091,-12.0731901209
-6.96323587141,-8.35570674442,-4.02500975668,-9.14206913226
-14.036826846,-11.2618111095,-3.29634951245,-8.19094814366
-10.8204178207,-3.7679154745,2.88231073179,-4.54982715506
-10.3140087953,19.3859801605,5.59097097602,6.67129383355
-12.95759977,4.14987579541,-1.79036877975,-4.21758517786
-13.6111907446,0.803771430368,-6.34170853552,-14.3564641893
-12.8547817192,-19.0423329347,-5.83304829129,-17.1253432006
-7.95837269388,-14.3684372997,2.46561195294,-6.60422221204
-7.74196366851,-11.4645416648,2.07427219718,-9.06310122345
-5.31555464315,10.6893539702,7.79293244141,6.16801976515
-5.60914561779,-25.1767503948,-0.648407314358,-7.40085924625
-13.3727365924,14.9271452401,8.75025292987,-15.4297382576
-10.2063275671,-5.74895912493,7.2389131741,-14.918617269
-3.92991854171,5.18493651002,3.47757341834,-3.38749628044
-3.06350951635,-0.441167855019,-2.07376633743,-7.50637529185
-7.24710049098,-10.9672722201,-2.0651060932,-8.78525430324
-9.64069146562,-26.7433765851,2.44355415103,-21.6441333146
-13.6042824403,-25.8094809501,-0.227785604737,-27.053012326
-15.0878734149,2.45441468481,4.7208746395,-22.2018913374
-15.0014643895,-32.9316896802,4.32953488373,-26.1507703488
0.584999999994,-2.62,0.516666666683,-1.31999999997
-1.17,5.24,-1.03333333332,2.64000000002
0.584999999998,-2.62,0.516666666674,-1.31999999999
