-38.9582267442,-32.7843350291,-1.03487645349,-38.4842005814
-39.7860228781,-32.1799815739,-1.16263061367,-34.3123135644
-42.7838190121,-28.0056281187,-0.770384773854,-30.7804265473
-39.871615146,-31.7812746635,-1.45813893403,-36.5985395303
-41.74941128,-31.2769212083,-2.50589309422,-39.9366525133
-38.6272074139,-25.2625677532,1.3463527456,-31.6947654962
-31.8050035479,-21.718214298,2.89859858542,-27.2928784792
-29.0627996818,-13.3838608428,1.85084442524,-21.3509914622
-25.0805958158,-8.08950738761,2.24309026506,-14.3791044452
-21.1083919497,-3.57515393243,4.55533610488,-10.8472174281
-23.5161880837,-3.78080047725,3.9575819447,-13.5153304111
-22.4439842176,-3.75644702206,2.21982778451,-14.5934433941
-20.9317803516,-0.50209356688,2.14207362433,-10.931556377
-18.5795764855,-1.5277401117,1.63431946415,-8.91966936001
-17.6173726195,1.52661334349,3.06656530397,-9.68778234298
-13.0351687534,8.61096679867,8.01881114379,-4.97589532595
-6.24296488738,12.5853202538,8.27105698361,2.57599169108
-1.22076102133,-7.04032629097,-3.72669717657,-10.3921212919
-3.29855715528,-11.6259728358,-5.81445133675,-18.4602342749
1.30364671077,-11.6116193806,-4.40220549693,-11.7183472578
6.40585057682,-8.30726592542,-3.38995965712,-10.1564602408
9.86805444287,-7.77291247024,-2.0177138173,-9.31457322377
4.59025830892,-4.19855901506,-1.65546797748,-6.00268620674
3.92246217497,0.295794440124,-0.79322213766,-1.09079918971
3.87466604102,1.99014789531,1.35902370216,-2.39891217268
3.24686990707,0.194501350488,-0.268730458021,-1.79702515565
0.49907377312,2.96885480567,1.6635153818,0.214861861379
5.39127763917,11.4132082609,2.60576122162,8.50674887841
12.7934815052,14.137561716,2.63800706143,11.8986358954
17.1456853713,9.21191517122,3.32025290125,9.52052291247
17.8378892373,18.5962686264,3.95249874107,19.5524099295
18.2200931034,16.5206220816,2.95474458089,19.9542969465
14.0222969694,16.7549755368,3.35699042071,15.7461839636
13.3445008355,11.4393289919,2.11923626053,14.5780709806
13.8767047015,13.2636824471,1.94148210035,14.3799579976
9.60890856757,10.1280359023,-0.576272059834,10.4618450146
8.11111243362,7.60238935749,-0.724026220016,10.6337320317
13.7233162997,12.1867428127,-0.441780380197,15.2156190487
17.7055201657,19.8410962679,1.68046545962,21.1775060657
16.9577240318,6.81544972304,0.572711299441,16.6993930828
16.0699278978,10.2098031782,2.25495713926,14.2212800998
12.4221317639,8.6141566334,0.78720297908,13.1631671168
8.91433562992,7.60851008859,-0.810551181103,11.1750541339
9.73653949597,5.77286354377,-0.668305341283,10.4269411509
17.228743362,6.68721699895,-0.256059501464,12.3688281679
17.6309472281,-0.11842954587,-6.33381366165,9.73071518495
20.9631510941,3.97592390931,-3.51156782183,12.782602202
20.7153549602,6.8102773645,-2.13932198201,13.184489219
19.5975588262,7.16463081968,-1.81707614219,13.006376236
22.8597626923,4.92898427486,-3.97483030237,11.9282632531
18.0519665583,-1.53666226996,-6.87258446255,9.6201502701
16.7941704244,-1.31230881477,-7.16033862273,10.6220372871
21.7563742904,5.27204464041,-6.54809278292,15.6939243042
21.2885781565,9.82639809559,-5.3958469431,17.0058113212
21.4707820225,7.08075155077,-4.27360110328,14.8376983382
21.5829858886,2.11510500596,-3.62135526346,11.6595853552
13.5051897546,-0.730541538866,-4.61910942364,8.72147237228
14.8073936207,2.59381191632,-4.96686358382,7.91335938931
19.9195974867,9.2281653715,-3.444617744,9.34524640634
18.5618013528,4.02251882668,-5.13237190418,11.5271334234
18.3340052188,5.93687228186,-3.38012606436,15.5290204404
18.8962090849,12.691225737,-0.377880224545,16.7709074574
16.8984129509,8.37557919223,-1.82563438473,13.6827944745
13.390616817,9.88993264741,-0.473388544908,12.1846814915
11.652820683,11.4942861026,0.628857294911,13.3165685085
11.2450245491,11.6486395578,-0.188896865273,14.4384555255
13.6172284151,11.532993013,-1.14665102545,14.7903425426
13.0294322812,9.93734646814,-1.33440518563,14.7122295596
12.0516361472,11.4316999233,0.367840654184,19.2041165766
8.11384001327,12.9560533785,0.620086494004,15.6260035937
8.20604387932,14.4004068337,1.07233233382,16.2278906107
8.33824774537,17.2347602889,5.50457817364,17.3597776277
4.16045161142,6.14911374405,-0.143175986541,8.73166464476
4.60265547747,3.21346719924,-0.890930146721,8.41355166179
5.38485934352,4.05782065441,1.0213156931,8.69543867882
5.33706320957,5.6721741096,1.58356153292,8.31732569585
4.63926707562,3.11652756478,1.92580737274,9.58921271288
7.30147094167,7.81088101996,3.09805321255,10.4110997299
10.6736748077,2.79523447514,0.310299052373,7.34298674693
5.58587867377,-0.0704120696755,0.892544892193,8.58487376397
3.43808253983,1.58394138551,1.79479073201,8.42676078099
2.52028640587,3.94829484069,4.39703657183,8.33864779802
6.98249027192,4.64264829587,3.66928241165,7.35053481505
11.414694138,9.26700175105,5.71152825147,12.3924218321
10.316898004,-5.71864479376,-1.36622590872,4.70430884911
6.91910187007,-7.17429133858,-3.9339800689,1.90619586614
2.78130573612,-1.8999378834,0.0382657709215,5.92808288317
2.17350960217,6.88441557178,2.61051161074,2.8799699002
2.06571346823,2.87876902697,1.57275745056,5.98185691723
-1.13208266572,6.27312248215,3.38500329038,11.0737439343
-0.129878799675,6.28747593733,2.7472491302,6.08563095129
1.08232506637,-0.0581706074881,0.359494970016,1.23751796832
1.92452893242,-7.12381715231,-3.78825919017,-3.93059501465
3.04673279847,-8.53946369713,-3.71601335035,-4.09870799762
0.828936664522,0.57488975806,1.45623248947,-1.79682098059
1.32114053057,4.25924321324,3.47847832929,0.725066036441
-3.03665560338,-0.27640333158,3.24072416911,-2.00304694653
-5.83445173732,-0.702049876396,0.942970008929,-6.9011599295
-6.79224787128,-2.04769642121,0.525215848749,-8.24927291247
-10.1200440052,-3.41334296603,-1.68253831143,-5.27738589544
-5.20784013917,-6.49898951085,-2.23029247161,-6.57549887841
-6.65563627312,-2.88463605567,0.971953368206,-4.28361186138
-6.25343240708,-3.36028260048,0.104199208025,-1.67172484435
-9.32122854103,-6.1559291453,-3.12355495216,-6.56983782732
-8.28902467498,-14.5415756901,-4.64130911234,-13.0779508103
-4.87682080893,-10.5672222349,-3.93906327252,-8.76606379326
-9.23461694287,-7.21286877976,-1.5568174327,-7.16417677623
-13.0524130768,-7.23851532457,-0.234571592884,-9.3322897592
-11.2202092108,-4.69416186939,1.08767424694,-10.4304027422
-12.5880053447,-1.92980841421,2.19992008675,-10.1885157251
-12.7058014787,-6.84545495903,1.78216592657,-14.3766287081
-13.3735976126,-14.8111015038,-2.95558823361,-11.9447416911
-10.0413937466,-4.50674804867,-1.18334239379,-8.46285467405
-11.2491898805,-10.5023945935,-3.61109655397,-11.790967657
-10.1969860145,-3.1080411383,-0.698850714152,-8.86908063999
-8.81478214842,1.89631231688,3.91339512567,-7.93719362296
-9.95257828237,-2.14933422794,5.10564096549,-10.4453066059
-14.7203744163,-10.0449807728,0.0478868053051,-16.1034195889
-14.8781705503,6.80937268243,2.13013264512,-8.12153257187
-11.1159666842,-9.49627386239,-4.38762151506,-14.7196455548
-12.2437628182,-25.3019204072,-3.62537567524,-22.6877585378
-12.3015589521,-7.39756695203,2.30687016458,-14.5758715208
-11.3493550861,2.67678650316,5.4891160044,-9.79398450375
-18.00715122,-4.87886004166,4.31136184422,-13.3120974867
-16.954947354,-17.6445065865,-1.17639231597,-18.5002104697
-15.9927434879,-6.4901531313,1.66585352385,-12.9983234527
-14.7205396219,-3.12579967611,1.33809936367,-11.0164364356
-16.5183357558,-6.03144622093,1.08034520349,-15.4045494186
11.2267223837,26.6752616279,-4.79887354652,18.8899818314
8.1721172576,30.1337306869,-3.42891343161,17.6626777376
5.98751213148,29.1721997459,-4.9089533167,17.5153736438
1.84290700536,14.4606688049,-0.748993201796,13.44806955
1.32830187924,4.95913786395,-9.13903308689,7.58076545619
2.48369675312,0.257606922958,-17.329072972,3.80346136239
1.789091627,-2.42392401804,-14.5691128571,4.60615726859
3.65448650088,18.024545041,-8.50915274217,9.28885317478
3.34988137475,37.9130141,1.63080737273,17.461549081
2.70527624863,21.351483159,-8.18923251236,13.0342449872
-1.10932887749,0.289952218001,-12.9192723975,8.55694089338
-1.03393400361,-8.03157872299,-8.27931228255,-2.60036320042
-1.94853912973,18.676890336,0.980647832355,5.04233270578
3.93685574414,16.615359395,-12.3993920527,12.075028612
6.18225061802,2.91382845404,-8.80943193783,6.63772451817
5.6776454919,-7.57770248695,-7.61947182293,4.28042042437
7.62304036578,12.7607665721,-9.61951170802,8.03311633057
5.50843523966,-4.21076436893,-6.76955159312,0.605812236769
4.68383011354,3.42770469008,1.56040852179,5.82850814297
4.75922498741,4.11617374909,-4.1996313633,3.57120404916
6.75461986129,-7.95535719191,-12.8396712484,4.30389995536
5.78001473517,3.5531118671,-7.97971113349,9.32659586156
3.53540960905,4.67158092611,-5.45975101859,6.29929176776
3.29080448293,-3.13995001488,-4.33979090368,2.56198767396
1.2161993568,-3.85148095587,-6.55983078878,-1.84531641984
0.641594230685,2.66698810314,-3.79987067387,0.0973794863567
-2.16301089544,4.20545716215,-0.149910558965,1.65007539256
-2.55761602156,0.893926221157,-6.81995044406,-2.12722870125
-1.43222114768,-7.04760471983,-7.36999032915,-3.31453279505
-1.9268262738,4.31086433918,0.199969785752,-4.37183688885
-0.771431399924,-20.6006666018,-4.08007009934,-24.0291409826
-3.98603652605,-7.41219754281,0.0898900155626,-2.30644507645
-7.73064165217,3.08627151621,-1.36014986953,2.04625082975
-2.92524677829,-6.37525942479,-4.56018975463,0.228946735944
-1.21985190441,-13.2567903658,-2.90022963972,-7.84835735786
-1.45445703053,-8.07832130677,1.46973047519,-7.29566145166
-0.649062156652,-4.16985224776,-3.51030940991,0.367034454539
-5.33366728278,-9.80138318875,5.539650705,-3.66026963926
-7.9182724089,-3.19291412974,7.7596108199,-5.60757373306
-2.75287753502,5.38555492927,5.73957093481,1.09512217314
2.40251733886,-7.87597601172,-0.580468950286,-2.89218192067
0.0179122127374,-8.36750695271,5.86949116462,-10.0694860145
-0.696692913385,-18.4690378937,-4.43054872047,-18.8667901083
-4.04129803951,-7.32056883469,2.77941139443,-11.5340942021
-8.41590316563,0.337900224316,5.91937150934,0.688601704129
-8.63050829175,-15.1736307167,4.09933162424,-7.49870238967
-12.8051134179,-9.68516165766,9.17929173915,-13.1160064835
-11.279718544,-15.9666925987,7.60925185406,-13.8333105773
0.485676329885,2.73177646035,6.13921196896,0.0793853289251
1.12107120376,2.76024551937,12.3491720839,0.482081235121
-2.20353392236,1.96871457837,13.6991321988,-8.98522285868
0.55186095152,-21.9528163626,1.43909231368,-13.0725269525
-0.2027441746,-16.4743473036,1.77905242858,-7.44983104628
-3.10734930072,-20.3058782446,5.09901254349,-11.7671351401
-2.51195442685,-2.78740918559,9.9589726584,-8.15443923388
-1.94655955297,19.0910598734,11.8089327733,5.56825667231
-2.70116467909,11.8295289324,16.5088928882,-0.879047421491
-4.79576980521,-31.2720020086,6.52885300311,-13.7763515153
-3.65037493133,-9.08353294955,8.65881311802,-8.24365560909
-1.72498005745,-3.87506389054,9.74877323292,-1.88095970289
-4.90958518358,-10.6765948315,10.8487333478,-5.5282637967
-2.6941903097,-9.95812577253,5.04869346274,-7.49556789049
-3.32879543582,11.7403432865,13.0186535776,7.82712801571
-4.37340056194,-10.0111876545,13.0986136925,-10.4201760781
1.22199431194,6.1372814045,15.1385738075,-4.0074801719
-4.20261081418,-14.6542495365,8.97853392236,-1.6847842657
-5.76721594031,-49.4357804775,-3.95150596274,-11.5320883595
-8.73182106643,-8.55731141847,3.92845415217,-13.7193924533
-6.24642619255,3.44115764054,10.8184142671,-6.81669654711
-1.07103131867,-13.1203733004,1.15837438198,-8.12400064091
2.64436355521,7.27809575856,9.45833449689,3.82869526529
6.39975842909,-5.75343518243,10.6582946118,1.34139117149
5.71515330296,0.975033876573,8.2482547267,1.11408707769
-0.129451823159,13.0635029356,12.0582148416,10.4067829839
-3.29405694928,14.4419719946,22.3981749565,3.10947889008
1.7113379246,18.5304410536,1.05813507141,-7.83782520371
1.65673279848,8.59891011261,2.36809518632,5.76487070249
-8.50787232765,-17.1326208284,8.45805530123,-8.21243339132
-10.5124774538,-34.8841517694,1.44801541613,-10.6997374851
-3.08708257989,-1.38568271036,8.09797553104,-3.19704157892
-1.83168770601,-9.49721365135,8.44793564594,-8.80434567272
-5.10629283213,-16.5887445923,15.4778957609,-6.09164976652
-1.37089795826,-12.2502755333,6.83785587575,-1.77895386032
-3.01550308437,-0.391806474319,9.48781599066,-8.17625795413
-1.09010821049,2.24666258469,7.68777610557,-13.1935620479
-0.834713336619,-1.15486835631,8.25773622047,-7.43086614173
-1.76931846274,20.0536007027,-3.74230366462,-7.83817023553
2.53607641114,-15.6479302383,-1.38234354972,-6.70547432933
-6.68852871498,-1.41946117927,4.39761656519,-3.64277842313
-0.0431338411072,-27.1009921203,-2.12242331991,-3.58008251694
2.35226103277,-20.1725230613,8.197536795,1.88261338927
5.17765590665,-8.62405400225,5.25749690991,4.09530929546
8.20305078053,-9.43558494324,-1.89254297519,0.108005201659
4.04844565441,-24.9971158842,4.55741713972,-6.84929889214
6.22384052829,7.01135317478,5.66737725462,6.62339701406
2.37923540216,-1.13017776621,9.20733736953,-3.21390707974
4.56463027604,-2.0017087072,2.57729748444,3.55878882645
6.78002514992,2.12676035181,-2.44274240066,6.32148473265
9.1554200238,5.94522941082,-1.76278228575,-1.52581936115
-3.66918510232,-4.47630153018,-0.0928221708473,-4.55312345495
-6.30379022844,-3.31783247116,12.2771379441,1.40957245125
-7.33839535456,-5.32936341215,1.93709805896,5.04226835745
-6.95300048069,-3.72089435315,6.21705817387,-13.4850357364
-2.09760560681,58.2275747059,10.7870182888,9.48766016985
-4.66221073293,-2.54395623513,-2.09302159632,-8.35964392396
-7.06681585905,17.6045128239,-3.60306148141,-12.0469480178
-2.26142098517,-24.6370181171,-11.6231013665,-2.87425211156
3.6539738887,-6.6685490581,-9.6031412516,2.46844379464
9.93936876258,-20.9800799991,-6.1031811367,-5.53886029916
7.43476363646,21.7483890599,-5.24322102179,2.90383560704
3.49015851034,36.4768581189,-2.08326090688,8.68653151323
-1.30444661578,-26.2246728221,-3.56330079198,-10.2107725806
-0.409051741906,-29.1962037631,-8.07334067707,-13.8780766744
2.32634313198,25.892265296,-0.393380562167,-2.25538076817
4.21173800586,-3.52926564503,-13.4334204473,-2.62268486197
4.21713287973,10.759203414,-18.7234603324,2.74001104422
-0.117472246391,-1.41232752702,-3.98350021745,0.0927069504287
2.19792262749,24.606141532,-9.82354010254,6.21540285663
6.56331750136,5.494610591,-14.3335799876,9.71809876282
4.73871237525,-11.85692035,-10.5936198727,16.530794669
3.31410724912,30.251548709,-4.83365975783,20.7634905752
1.929502123,33.150017768,-17.3436996429,19.4261864814
-6.21510300312,-11.021513173,-10.893739528,2.26888238762
1.28029187076,-14.963044114,-10.9537794131,-1.41842170618
1.28568674464,18.6754249451,-7.7638192982,19.0942742
5.78108161851,9.91389400407,-12.6038591833,26.8669701062
6.07647649239,29.2823630631,-15.8838990684,23.4396660124
6.71187136627,48.6808321221,-17.7939389535,26.5223619186
-6.00564705882,21.8944201681,3.43132773109,-3.95035294119
-2.51498395722,-17.4025500382,1.48479449962,1.24710160427
1.72567914439,3.67047975554,-8.53173873186,8.99455614972
-4.51365775401,3.30350954928,3.61172803667,-4.89798930482
-2.5929946524,-3.65346065699,-4.48480519481,-9.05053475937
-2.4523315508,22.6295691367,3.31866157372,3.65691978608
-4.1616684492,14.0625989305,7.41212834224,-1.00562566846
2.67899465241,-32.2043712758,-2.20440488923,-1.858171123
4.68965775401,-13.411341482,-0.320938120705,5.00928342245
8.69032085562,12.0216883117,11.2125286478,8.03673796791
6.83098395722,-0.435281894577,2.15599541635,12.7141925134
5.53164705883,-14.7422521008,-6.18053781513,-1.12835294118
1.95231016043,-7.7092223071,-3.6770710466,-5.79089839573
-4.64702673797,-2.92619251337,-3.05360427808,-3.18344385028
0.20363636364,-0.293162719634,-2.90013750955,-0.355989304819
-1.16570053476,-6.8301329259,1.71332925898,-3.98853475937
-0.645037433151,-20.8071031322,-5.8232039725,-3.78108021391
0.825625668454,20.2059266616,0.700262796026,1.72637433155
-2.15371122994,-1.95104354469,-4.95627043545,-7.736171123
-6.67304812834,14.271986249,8.05719633308,0.541283422455
-5.95238502674,-20.7149839572,-0.569336898396,-13.0412620321
0.87827807487,21.3980458365,0.414129870131,2.14619251337
1.83894117647,9.14107563025,0.547596638655,9.00364705882
1.11960427808,-11.445894576,-4.25893659282,-1.42889839573
2.82026737968,26.8371352177,-4.34546982429,-1.39144385027
17.9709304813,11.5601650115,-7.59200305577,9.79601069518
16.3415935829,-18.6368051948,-1.68853628724,5.80346524064
-0.517743315508,5.92622459893,6.11493048128,5.45091978609
-6.2670802139,1.30925439267,6.84839724981,-4.62162566845
-9.1764171123,-11.6277158136,2.87186401834,-5.944171123
-9.19575401069,-6.45468601987,-1.93466921314,-4.14671657754
-6.69509090909,-10.6816562261,-0.301202444611,-2.74926203209
-0.924427807484,9.34137356761,1.55226432391,2.01819251337
2.15623529412,4.35440336134,1.37573109244,3.90564705882
