-2.51057412791,1.17539244187,1.53367369185,1.19737281977
-5.46742778337,-2.09732043123,3.57800560222,1.09901483245
-4.15428143884,0.829966695659,3.50233751258,-3.92934315487
-5.4311350943,2.52725382256,-0.443330577054,-9.88770114219
-9.81798874978,-1.38545905054,0.66100133331,-10.6760591295
-8.04484240524,-7.46817192363,-1.02466675633,-12.2944171168
-8.1716960607,-7.71088479673,-1.57033484596,-10.5827751041
-8.39854971617,-6.59359766984,-2.0960029356,-11.5311330915
-6.29540337164,0.573689457058,-0.571671025233,-5.38949107878
-1.4022570271,0.780976583963,0.0226608851317,-2.8278490661
3.35088931744,-2.44173628914,1.7369927955,0.133792946579
-5.63596433803,-8.03444916224,5.17132470586,-7.54456504074
-6.53281799349,0.502837964661,0.595656616226,-7.88292302806
-0.169671648968,8.62012509156,-1.34001147341,-1.57128101538
0.193474695574,7.89741221846,0.824320436954,2.9603609973
-0.503378959897,3.27469934536,-1.87134765268,1.05200300998
5.34976738463,1.52198647226,-2.93701574232,-1.88635497734
0.562913729169,2.21927359916,-1.89268383195,-1.44471296466
0.846060073702,3.17656072606,-3.08835192159,1.76692904802
-2.42079358176,3.98384785296,-2.18402001122,2.60857106071
-2.93764723723,-1.35886502014,1.11031189914,-1.53978692661
-5.7845008927,2.76842210676,0.894643809504,1.69185508607
2.39864545184,7.50570923366,0.398975719871,7.14349709875
7.91179179637,9.09299636056,0.0533076302345,7.44513911143
4.7149381409,7.64028348746,-1.5223604594,7.86678112411
-3.58191551457,-4.14242938564,-3.99802854904,1.70842313679
-1.21876917002,-7.38514225874,-1.23369663867,-2.49993485053
-2.09562282549,-0.547855131845,-1.86936472831,1.67170716215
3.53752351904,3.15943199505,-2.26503281794,7.47334917483
1.41066986357,1.75671912196,-1.60070090758,4.57499118751
2.37381620811,-1.53599375114,0.0136310027865,-0.503366799807
2.43696255265,-4.70870662424,-2.94203708685,0.738275212876
4.51010889717,-1.72141949735,-3.33770517649,4.81991722556
11.0132552417,7.13586762956,-0.79337326612,7.70155923824
9.37640158624,1.07315475646,-2.81904135576,2.68320125092
0.989547930782,-8.93955811665,-4.30470944539,-1.1451567364
1.34269427531,-7.87227098974,-5.46037753503,0.346485276279
1.31584061985,-1.07498386285,-4.43604562466,4.93812728896
6.18898696438,6.20230326405,-2.8817137143,8.97976930164
6.34213330891,8.34959039096,-0.307381803934,8.07141131432
-0.744720346549,1.91687751786,-0.623049893569,6.053053327
-0.641574002024,-1.24583535524,-0.418717983204,5.95469533968
4.88157234251,2.20145177165,0.695613927161,6.86633735236
7.06471868705,0.678738898554,-0.950054162477,2.82797936505
5.65786503159,2.41602602545,-0.765722252112,4.96962137772
4.73101137612,3.78331315235,-0.571390341747,8.94126339041
0.464157720657,0.250600279258,2.50294156862,8.08290540309
2.68730406518,4.91788740615,4.27727347898,6.46454741577
8.48045040972,6.52517453305,2.39160538934,8.21618942845
0.383596754255,7.46246165995,2.73593729971,4.36783144113
7.31674309878,-2.15025121315,0.580269210075,-0.710526546191
-0.180110556677,-2.57296408625,-1.03539887956,0.26111546649
3.64303578786,-2.42567695935,-1.5610669692,0.592757479171
2.87618213239,2.72161016755,-1.39673505883,4.60439949185
3.69932847692,3.16889729445,0.757596851532,3.85604150453
3.07247482146,-0.213815578645,3.7219287619,2.41768351721
-0.574378834011,-1.12652845174,5.43626067226,0.929325529894
1.62876751052,7.07075867515,5.91059258263,6.04096754258
-1.31808614494,-0.301954197952,0.744924492992,-0.647390444745
0.93506019959,0.025332928948,1.10925640336,-1.72574843206
-8.79179345587,-3.03737994415,3.24358831372,-5.13410641938
-4.76864711134,-4.33009281725,3.58792022408,-6.6824644067
-4.5355007668,1.22719430965,4.40225213445,-2.36082239402
-10.9523544223,6.12448143655,2.96658404481,0.850819618659
-8.84920807774,2.46176856345,1.10091595518,-0.897538368659
-12.1860617332,-4.81094430965,1.24524786554,-7.67589635598
-13.9329153887,-1.59365718275,2.50957977591,-3.9142543433
-9.12976904414,0.153629944143,2.29391168627,1.04738766938
-3.69662269961,0.420917071046,1.07824359664,-1.38097031793
1.59652364493,1.91820419794,-1.187424493,0.780671694745
-1.63033001054,-1.99450867515,1.00690741736,3.74231370743
-5.677183666,-2.57722154825,1.69123932773,1.83395572011
2.94596267853,0.120065578645,0.165571238093,-0.834402267214
3.02910902306,0.927352705548,-0.630096851542,0.34723974547
3.4322553676,-1.57536016755,-0.215764941178,-1.03111824185
0.18540171213,-7.21807304065,0.258566969187,-3.40947622917
-1.49145194333,-9.74078591375,-0.727101120448,-5.77783421649
-1.1183055988,-4.15349878686,4.03723078991,-4.31619220381
6.10484074574,-4.89621165996,3.78156270028,-6.71455019113
1.51798709027,-6.88892453306,-0.674105389355,-9.14290817845
-0.988866565203,-9.30163740616,-0.90977347899,-4.09126616577
0.654279779337,-12.7943502793,-1.16544156863,-5.03962415309
7.60742612387,-3.44706315235,0.718890341739,-0.287982140404
9.72057246841,-0.00977602545754,1.7432222521,2.27365987228
3.48371881294,-1.98248889855,2.12755416247,-0.864698115043
3.52686515747,-7.36520177165,1.74188607283,-2.64305610236
4.02001150201,-10.0279146448,-0.683782016804,-4.10141408968
6.78315784653,-5.31062751785,-1.98945010644,-3.819772077
7.20630419107,0.336659609042,2.02488180393,-0.94813006432
2.12945053561,1.92394673594,3.83921371429,0.793511948363
-0.357403119859,-3.32876613716,1.86354562465,-0.844846038957
-1.54425677533,-2.63147901026,1.56787753502,-2.24320402628
8.19888956921,2.97580811664,2.58220944538,0.718437986405
9.85203591374,9.69309524354,2.96654135575,6.57007999908
9.75518225828,10.6403823704,4.01087326611,6.85172201177
10.7383286028,3.76766949734,2.63520517648,2.93336402445
10.2414749473,1.71495662424,3.35953708684,0.865006037127
17.2346212919,3.99224375114,1.1138689972,3.76664804981
18.1977676364,10.989530878,1.70820090757,7.57829006249
8.09091398095,4.97681800494,1.74253281793,1.53993207517
2.91406032548,-3.83589486816,-2.0431352717,-3.32842591215
-3.47279332998,-8.54860774126,-3.12880336134,-2.41678389947
-5.35964698545,-7.32132061436,-1.55447145097,-2.28514188679
0.723499359076,-5.51403348746,-3.51013954061,-3.61349987411
5.07664570362,-3.97674636056,-4.18580763024,-1.81185786143
-2.55020795186,-6.92945923366,-5.63147571988,-5.00021584874
-0.227061607315,-9.14217210676,-5.59714380951,-6.79857383607
-2.47391526278,-6.21488497985,-5.81281189915,-3.78693182338
4.61923108176,-2.10759785296,-5.16847998879,-3.3052898107
-5.51762257372,-1.84031072606,-3.15414807842,-5.52364779802
-9.45447622918,-6.82302359916,-3.44981616806,-6.27200578534
-11.8913298846,-7.11573647226,-4.51548425769,-8.33036377266
-7.30818354012,-1.59844934536,-2.80115234733,-3.75872175998
-7.36503719558,-0.411162218465,-4.01682043696,-3.3670797473
-12.031890851,6.08612490843,-2.1524885266,-1.29543773462
-10.6787445065,0.653412035339,0.741843383767,-1.90379572194
-8.13559816198,-7.25930083776,-0.47382470587,-4.35215370926
-10.7924518174,0.677986289142,0.0705072044948,-1.34051169658
-7.32930547291,5.50527341603,-0.235160885142,-1.8188696839
-2.30615912838,8.81256054294,1.38917102522,1.39277232879
-3.45301278384,4.24984766984,2.40350293559,1.87441434147
-3.22986643931,-0.312865203261,1.40783484595,0.00605635414649
-3.81672009477,3.26442192364,2.49216675632,2.27769836683
1.05642624976,9.31170905053,3.06649866668,6.58934037951
1.71957259429,9.98899617743,0.400830577046,7.40098239219
-2.21728106117,6.20628330434,0.47516248741,5.18262440487
-0.514134716635,6.87357043123,-0.760505602226,5.01426641755
-2.2409883721,12.1208575581,-0.0361736918603,8.33590843023
6.25805595931,8.03314316861,4.37254723837,3.60073037791
4.64981147571,6.73228412265,3.3226153921,-0.841927531585
3.03156699209,2.78142507669,3.06268354583,2.12541455892
0.963322508476,-0.919433969277,1.16275169955,0.302756649424
-0.0149219751329,5.19970698476,2.15281985328,1.37009873993
0.156833541259,10.2988479388,1.13288800701,4.83744083044
4.80858905765,4.35798889284,-1.20704383927,0.36478292094
-0.809655425961,3.26712984688,0.20302431446,3.51212501145
2.79210009042,-1.38372919909,0.963092468186,3.89946710195
6.24385560682,3.78541175496,2.38316062191,5.48680919246
0.305611123207,7.00455270899,3.48322877564,4.77415128296
5.30736663959,3.86369366303,3.39329692936,2.15149337347
1.69912215598,2.85283461706,3.82336508309,3.80883546397
-0.979122327633,-1.9280244289,2.19343323682,0.616177554479
-0.187366811246,6.91111652514,3.21350139054,7.83351964498
7.08438870515,4.56025747918,2.03356954427,6.04086173549
7.87614422153,0.139398433217,0.293637697996,4.16820382599
1.17789973792,-1.22146061275,-0.106294148276,2.4055459165
0.919655254314,-4.39231965871,-2.26622599455,0.812888007005
1.0414107707,-0.683178704669,-0.656157840824,1.44023009751
2.06316628709,1.37596224937,0.113910312903,0.547572188016
4.63492180348,4.1951032034,1.54397846663,6.04491427852
-0.443322680127,0.264244157443,1.66404662036,0.932256369028
-2.67156716374,-7.70661488852,-0.635885225918,-5.60040154047
-0.449811647355,-4.75747393449,-2.17581707219,-3.76305944996
-1.24805613096,1.95166701955,-2.63574891846,-3.33571735946
-2.42630061458,-0.349192026406,-2.29568076474,-3.09837526895
-5.34454509819,-6.74005107237,-3.36561261101,-5.53103317845
-8.8127895818,-13.2409101183,-4.63554445728,-11.3636910879
-5.41103406542,-10.6617691643,-3.31547630356,-11.1663489974
-1.34927854902,-5.61262821026,-3.26540814983,-9.63900690693
-7.75752303263,-10.9734872562,-5.73533999611,-11.5616648164
-17.2057675162,-16.4743463022,-5.01527184238,-15.4743227259
-11.0740119999,-12.4852053481,-2.89520368865,-14.0669806354
-5.92225648346,-14.4960643941,-5.23513553493,-14.9596385449
-11.3905009671,-9.48692344008,-2.2350673812,-10.8722964544
-12.1587454507,-11.367782486,-3.65499922747,-11.5149543639
-13.6969899343,-12.788641532,-3.02493107375,-11.9876122734
-13.9752344179,-16.049500578,-2.44486292002,-9.62027018289
-7.86347890152,-10.9303596239,-2.84479476629,-6.75292809238
-5.71172338513,-1.90121866988,-1.29472661257,-2.37558600188
6.44003213126,-9.05207771585,-3.50465845884,-5.18824391137
-1.61821235236,-10.6529367618,-4.41459030511,-2.78090182087
-2.95645683596,-11.8637958078,-6.91452215139,-4.27355973036
7.40529868042,-7.85465485373,-4.33445399766,-3.66621763985
3.76705419681,0.174486100303,-1.78438584394,3.37112445065
4.4088097132,2.58362705434,-1.89431769021,2.83846654116
6.42056522959,-3.55723199162,-3.92424953648,1.40580863166
4.80232074598,-6.30809103758,-5.05418138275,-0.696849277832
3.94407626236,-4.08895008354,-2.57411322903,0.000492812670927
8.01583177876,4.86019087049,-1.5140450753,4.91783490318
3.08758729514,4.31933182453,-2.38397692158,-0.564823006318
3.05934281153,-4.99152722143,-2.64390876785,-2.61748091581
-2.83890167208,-6.8923862674,-1.36384061412,-2.21013882531
-4.43714615569,4.14675468664,2.1662275396,3.3472032652
-6.5953906393,6.27589564068,2.42629569333,3.3945453557
-0.553635122909,11.3050365947,2.64636384706,7.10188744621
-3.60187960652,2.23417754875,0.646432000782,1.17922953671
1.85987590987,1.5233185028,1.33650015451,0.936571627219
2.42163142626,6.62245945683,3.55656830824,8.27391371773
4.02338694264,12.0116004109,3.80663646196,5.52125580823
2.15514245904,5.3107413649,0.0167046156894,1.62859789874
-2.26310202458,1.05988231894,1.55677276942,2.74593998924
-2.18134650819,3.27902327298,2.54684092314,1.92328207975
1.0904090082,8.89816422702,1.25690907687,7.78062417025
4.51216452459,3.37730518106,2.86697723059,5.49796626076
4.52392004097,3.53644613509,-0.212954615679,4.29530835126
-0.204324442631,0.905587089124,-0.722886461952,5.72265044177
2.14743107375,2.39472804317,0.497181691775,5.00999253227
8.03918659015,5.62386899721,2.7372498455,5.65733462278
8.14094210653,16.6930099512,4.05731799923,12.2046767133
6.67269762293,14.3221509053,1.73738615295,11.3320188038
4.00445313931,5.27129185932,3.12745430668,7.7793608943
7.5862086557,7.91043281335,5.05752246041,11.0667029848
3.88796417209,12.9895737674,5.63759061413,13.3040450753
4.02971968848,19.1787147214,6.73765876786,14.8913871658
4.44147520486,15.8978556755,7.16772692159,10.0587292563
-3.37676927875,6.6469966295,6.52779507531,3.64607134682
-3.92501376236,3.00613758354,3.89786322904,-0.356586562673
-0.453258245972,1.24527853759,0.877931382765,1.93075552783
4.33849727042,6.48441949162,1.50799953649,3.04809761834
2.41025278681,3.73356044566,-0.361932309781,0.725439708844
1.0520083032,-1.18729860031,-0.221864156054,-2.20721820065
1.33376381959,-3.27815764627,1.14820399767,-1.01987611015
-8.00448066402,0.380983307768,0.388272151398,-1.71253401964
1.50727485237,3.74012426181,-1.28165969488,-1.60519192913
-5.99096963125,1.90926521584,1.26840845885,-6.51784983863
-7.51921411486,0.50840616988,1.36847661258,-3.81050774812
-8.65745859847,-6.60245287608,-1.9814552337,-4.42316565762
-6.68570308208,-1.47331192205,-1.37138707997,-5.22582356711
-3.38394756569,6.285829032,-1.08131892624,-2.87848147661
-5.88219204931,4.36496998603,-0.941250772517,-2.6711393861
-0.910436532911,0.944110940072,0.428817381209,-0.193797295598
4.38131898348,2.73325189411,0.548885534936,3.81354479491
7.04307449987,10.2423928481,3.74895368866,6.29088688541
10.7448300163,14.9915338022,3.70902184239,7.40822897592
6.41658553264,6.09067475622,1.13908999612,4.03557106642
6.15834104903,4.52981571025,3.28915814984,6.06291315693
2.12009656542,5.67895666429,6.42922630357,6.36025524743
6.76185208181,8.58809761833,5.97929445729,9.01759733794
0.263607598194,10.3272385724,3.66936261102,7.96493942845
7.44536311458,8.07637952641,3.08943076475,5.04228151895
7.20711863097,1.57552048044,2.35949891847,4.65962360946
1.13887414736,-2.73533856552,-1.2204329278,0.00696569996217
-3.49937033624,-0.336197611483,-0.180364774073,0.524307790467
5.20238518014,5.22294334256,0.159703379653,2.74164988097
0.114140696533,-3.68791570341,-2.10022846662,-5.33100802852
-3.24410378708,-8.87877474937,-2.07016031289,-6.85366593802
-1.92234827069,-10.4396337953,-2.58009215917,-6.73632384751
3.7894072457,-4.1904928413,-2.35002400544,-2.73898175701
-1.45883723791,-3.63135188726,-1.51995585171,-4.2816396665
-0.927081721529,-2.02221093322,-2.29988769799,-4.56429757599
-6.12532620514,-10.6730699792,-4.49981954426,-11.8769554855
-5.27357068875,-11.0239290251,-0.949751390533,-8.60961339498
-4.83181517237,-10.0647880711,-0.339683236807,-2.78227130448
-10.190059656,-6.83564711707,-4.21961508308,-9.90492921397
-4.25830413958,-5.24650616303,-5.50954692935,-12.0575871235
-4.36654862319,-12.597365209,-4.14947877563,-8.99024503296
-0.934793106804,-12.038224255,-4.4094106219,-5.03290294246
-1.01303759041,-9.21908330092,-2.83934246818,-6.28556085195
-0.531282074029,-2.79994234689,-1.60927431445,-2.57821876145
-0.699526557641,-0.970801392847,-3.47920616072,-2.62087667094
1.59222895875,-1.0116604388,-1.12913800699,4.01646541956
1.39398447514,-5.18251948476,-0.449069853268,2.52380751007
6.65573999153,-0.113378530725,0.940998300457,5.38114960057
2.28749550792,4.96576242331,1.77106645418,8.01849169108
-1.2607489757,3.13490337734,2.27113460791,0.535833781585
-3.77899345931,-7.63595566861,0.711202761637,-4.62682412791
-9.88627180232,-11.2607703488,0.860821220926,-4.66172601744
-8.95757559283,-7.72426707562,-0.174160953813,-4.27618210378
-10.1788793834,-1.11776380241,-1.36914312855,-4.02063819012
-12.3201831739,-3.9912605292,-2.99412530329,-5.93509427646
-12.0714869644,-6.37475725599,-0.91910747803,-5.1495503628
-9.79279075489,-4.41825398277,-1.15408965277,-2.95400644914
-6.59409454541,-2.38175070957,-0.419071827509,-0.528462535474
-5.66539833592,1.36475256364,-1.34405400225,2.96708137818
-3.60670212644,0.151255836849,-2.51903617699,2.59262529185
-5.35800591695,-3.73224088993,-1.23401835173,-0.331830794494
-5.72930970747,-4.32573761672,-1.99900052646,-2.75628688083
-2.57061349798,1.85076565648,-2.4939827012,-0.980742967173
-2.4519172885,5.05726892969,-1.27896487594,-0.125199053513
-2.64322107901,7.3637722029,1.86605294932,2.18034486015
-2.56452486953,-0.399724523886,-0.468929225421,1.29588877381
-3.45582866004,-3.65322125068,-1.70391140016,-5.19856731253
4.96286754945,-4.96671797747,-1.5988935749,-3.80302339887
-0.468436241063,2.34978529574,-1.94387574964,0.112520514789
-5.27974003158,-0.0737114310468,-1.01885792437,-2.20193557155
-3.7310438221,-6.94720815784,-1.22384009912,-6.64639165789
-11.1823476126,-7.45070488463,-2.52882227385,-7.31084774423
-2.32365140313,-4.18420161142,-0.883804448593,-5.78530383057
-5.87495519364,-0.907698338211,-0.108786623332,-6.44975991691
-0.706258984159,-0.471195065002,-1.52376879807,-4.31421600325
0.67243722533,-8.10469179178,-2.51875097281,-6.00867208959
-6.64886656519,-6.97818851857,-2.08373314755,-9.06312817593
-0.630170355696,-4.85168524537,-1.90871532229,-5.67758426227
4.96852585378,1.41481802784,-0.713697497027,-0.732040348605
3.94722206327,10.5013213011,2.30132032823,3.07350356506
-0.0440817272465,1.09782457426,1.45633815349,0.0690474787152
3.15461448224,-5.70567215253,-2.14864402124,-3.54540860762
6.03331069172,4.90083112068,-1.95362619598,4.97013530604
7.15200690121,11.0073343939,0.381391629277,10.2756792197
13.6907031107,9.9938376671,2.00640945454,10.2612231334
15.5993993202,6.78034094031,2.4714272798,9.59676704702
9.43809552967,1.04684421352,1.74644510506,4.24231096068
12.7267917392,8.77334748673,2.92146293032,9.67785487434
13.3454879486,12.8498507599,2.46648075558,10.073398788
11.4341841581,8.25635403315,1.58149858084,6.20894270166
7.01288036761,2.85285730636,0.366516406104,4.09448661532
8.25157657709,-3.22063942043,1.10153423137,1.91003052898
14.7002727866,-1.82413614722,0.646552056625,5.44557444264
7.19896899606,5.29236712599,-0.568430118112,7.4011183563
-0.0323347944504,4.1188703992,-1.43341229285,6.17666226996
2.60636141503,-0.00462632758718,-0.0283944675921,2.07220618362
2.93505762452,-0.328123054387,0.096623357671,-0.0922499027165
1.573753834,-0.811619781176,-3.55835881707,-1.91670598906
6.12245004349,7.50488349204,-3.25334099181,3.4088379246
2.82114625297,8.43138676525,0.491676833453,5.14438183826
4.36984246246,0.687890038462,0.466694658713,2.08992575192
3.39853867194,-3.10560668833,2.15171248397,2.00546966559
6.08723488144,1.56089658488,2.36673030924,3.44101357925
6.60593109092,7.01739985809,2.7417481345,4.54655749291
2.3246273004,10.9839031313,5.54676595976,8.55210140657
3.59332350989,3.01040640451,2.07178378502,4.42764532023
9.30201971938,0.696909677717,-0.32319838972,2.44318923389
3.18071592886,2.11341295093,0.00181943554162,4.41873314755
-0.230587861661,7.55991622414,-0.033162739197,2.63427706121
3.75810834783,7.38641949735,-1.89814491394,2.72982097487
11.0968045573,-0.227077229436,1.73687291132,3.00536488853
5.5155007668,2.37942604376,6.83189073658,6.52090880219
-1.13580302372,0.155929316978,4.82690856184,4.16645271585
1.89289318577,-2.87756740981,-0.588073612893,-6.44800337049
-0.0484106047443,0.1889358634,-2.36305578763,-3.55245945683
-5.59971439526,-8.00456086339,-1.31803796237,-6.87691554317
0.81898181422,-7.87805759018,-0.453020137109,-5.22137162951
-3.25232197629,-6.64155431697,-0.868002311849,-4.71582771585
2.44637423319,2.86494895624,1.04701551341,4.51971619781
2.75507044268,5.51145222945,1.48203333867,3.58526011147
-0.146233347834,4.00795550266,2.14705116393,1.09080402513
-4.09753713835,-2.24554122413,1.44206898919,2.1263479388
-2.49884092886,1.32096204907,0.477086814457,2.36189185246
-8.82014471937,0.547465322285,0.312104639717,-3.80256423389
-1.9714485099,-0.00603140450403,-1.06287753502,-3.03702032022
-5.4227523004,-7.52952813129,0.702140290239,-9.55147640656
-8.72405609092,-9.25302485809,0.447158115499,-9.0759324929
-0.775359881438,-7.61652158487,-0.657824059241,-6.16038857924
1.80333632805,-2.38001831166,1.33719376602,-2.80484466558
-2.41796746247,-1.14351503845,1.87221159128,-3.01930075192
-8.23927125298,-6.22701176524,-1.31277058346,-5.65375683826
-12.0105750435,-0.740508492032,1.40224724181,-0.888212924599
-3.75187883401,4.69599478118,3.49726506707,2.16733098906
-5.26318262453,6.05249805439,4.11228289233,2.28287490272
0.465513584961,1.2290013276,3.27730071759,-2.13158118362
-1.53579020555,-2.6644953992,2.98231854285,-2.17603726996
1.69290600393,-6.57799212599,4.62733636811,-1.4304933563
1.54160221342,-1.71148885277,4.19235419337,3.63505055736
3.3402984229,2.11501442044,4.13737201863,5.31059447102
2.40899463239,2.40151769365,4.62238984389,2.83613838468
-3.05230915813,0.148020966852,3.29740766915,0.521682298344
1.39638705135,-6.74547575993,1.05242549441,-0.812773787995
4.80508326085,0.611027513274,1.26744331968,2.68277012566
3.67377947033,4.06753078649,0.882461144936,2.35831403933
5.56247567982,7.1340340597,-0.742521029802,2.87385795299
4.0311718893,0.260537332906,1.40249679546,-2.19059813335
7.22986809878,-7.32295939389,0.387514620719,-0.935054219693
6.34856430827,0.323543879327,0.282532445981,5.20048969397
4.18726051775,5.37004715254,0.547550271242,7.28603360763
-0.344043272758,-0.253449574251,-1.4274319035,-0.398422478713
3.75465293672,-4.89694630105,-1.82241407824,-3.94287856505
0.193349146211,-10.3204430278,-3.76739625298,-7.17733465139
5.67204535569,-1.28393975463,-2.28237842772,-1.85179073773
4.41074156518,4.31256351859,-0.887360602454,0.0637531759312
-4.75056222534,3.0290667918,-0.532342777191,-4.98070291041
-3.89186601585,-1.45442993499,-0.387324951931,-6.69515899675
0.276830193638,-2.46792666179,0.317692873328,-3.49961508309
-6.66447359687,-0.881423388571,0.942710698591,-4.13407116943
-5.9857773874,0.455079884639,-0.772271476149,-1.35852725577
-1.3470811779,-1.07841684216,-3.09725365089,-0.832983342107
-1.83838496843,-0.441913568946,-0.962235825626,-0.757439428446
-2.31968875893,-2.06541029573,1.30278199964,-0.711895514787
-3.60099254945,2.21109297747,0.557799824895,1.44364839888
-3.01229633997,5.74759625069,0.842817650157,2.13919231254
3.74639986952,9.20409952389,0.637835475418,5.9947362262
-0.424903920997,-1.55939720289,-1.71714669932,-1.12971986014
0.0537922884905,-4.77289392969,-2.98212887406,1.00582405352
-2.66751150203,-0.536390656474,-2.7871110488,3.33136796718
0.98118470746,-1.97988738326,-2.19209322354,-2.20308811916
-1.51011908305,1.80661588994,-0.417075398278,-1.0075442055
0.178577126433,1.88311916315,0.737942426984,-2.01200029184
-6.83272666408,-3.11037756364,-0.697039747756,-4.27645637818
-1.9540304546,0.496125709571,-0.912021922495,-0.25091246452
-6.70533424511,1.66262898278,1.27299590277,-1.67536855086
-2.51663803562,1.24913225599,-0.771986271971,-0.929824637198
-3.19794182614,-2.9443644708,-2.96696844671,1.26571927646
-5.44924561666,-8.53786119759,-6.02195062145,-3.16873680988
-1.62054940717,-4.15135792438,-6.24693279619,0.886807103781
-8.85185319768,2.42514534883,-5.01191497093,2.74235101744
-3.55472020348,-5.25398982557,2.48014534883,-7.6622928779
-2.73936658807,-7.20276557635,3.10620728232,-4.86575332471
-11.5940129727,-10.3415413271,1.6622692158,-5.59921377151
-15.3786593572,-7.71031707791,0.478331149281,-8.95267421832
-4.41330574184,-6.35909282868,-0.295606917236,-10.6561346651
0.0420478735687,-3.90786857946,0.270455016247,-6.02959511192
-4.50259851102,-2.35664433024,3.40651694973,-2.89305555873
-3.59724489561,-5.36542008102,2.53257888321,-5.10651600554
3.18810871981,-8.7241958318,-0.721359183304,-4.02997645234
-0.21653766479,0.207028417426,4.15470275018,0.976563100856
4.19881595061,1.48825266664,3.15076468366,2.74310265405
3.88416956603,-6.88052308414,-0.483173382856,-1.17035779275
-4.80047681856,-8.11929883491,0.752888550629,-3.54381823956
-1.52512320316,-5.59807458569,-0.921049515888,-3.98727868636
-4.47976958774,-2.52685033646,-3.17498758241,-3.47073913317
-1.40441597234,-3.76562608725,-2.40892564892,-6.01419957997
-0.299062356928,-10.164401838,-2.74286371544,-10.1076600268
-1.76370874152,-9.33317758881,1.02319821804,-8.10112047358
-7.86835512611,-4.06195333958,2.94926015153,-5.59458092039
-3.4130015107,0.109270909634,0.555322085009,-1.78804136719
-2.54764789529,2.35049515886,-0.70861598151,-2.861501814
-2.33229427988,-2.41828059191,-3.14255404803,-2.7249622608
1.28305933552,-3.3470563427,-1.16649211454,1.11157729239
10.3284129509,-0.11583209347,0.649569818941,1.78811684559
0.503766566348,7.18539215575,2.57563175242,0.874656398786
3.28912018175,6.83661640497,2.62169368591,4.00119595198
3.54447379716,0.597840654191,1.77775561939,1.24773550518
0.519827412572,1.05906490341,2.34381755287,1.18427505837
-2.30481897202,5.62028915263,3.37987948636,4.74081461157
2.99053464339,3.54151340185,1.32594141984,3.10735416476
3.7558882588,2.39273765108,2.11200335332,1.88389371796
-2.99875812579,1.7339619003,2.98806528681,0.520433271153
-3.70340451039,1.38518614952,1.69412722029,1.00697282435
0.0719491050259,5.50641039874,3.31018915377,2.35351237754
3.92730272044,9.47763464796,3.58625108725,5.28005193074
-3.32734366415,5.10885889718,1.11231302074,-0.193408516065
1.35800995125,-2.0999168536,-0.501625045781,-0.28686896287
2.38336356666,-4.34869260437,-0.845563112296,-1.83032940967
2.67871718207,-1.15746835515,-0.469501178815,-1.44378985648
5.06407079748,10.3837558941,0.366560754668,7.09274969672
8.38942441289,6.4249801433,0.212622688152,5.68928924991
12.8747780283,6.27620439251,2.83868462163,11.3158288031
6.31013164371,4.70742864173,1.74474655512,11.0723683563
8.49548525911,13.118652891,6.3308084886,14.9889079095
18.8808388745,7.38987714017,4.01687042208,13.1354474627
10.5761924899,8.8311013894,2.16293235557,12.6619870159
6.03154610534,9.00232563863,3.19899428905,12.9985265691
2.40689972075,-1.35645011216,0.695056222532,-0.0549338777219
5.52225333616,1.27477413707,-0.368881843984,-3.44839432453
3.52760695157,7.56599838629,0.747180089498,4.74814522867
-0.12703943302,6.52722263551,-0.946757977019,3.45468478187
4.68831418239,3.27844688473,-4.31069604354,2.76122433506
0.883667797796,3.97967113395,-2.83463411005,4.37776388825
10.8190214132,5.02089538317,-0.548572176569,3.66430344145
8.42437502862,5.6621196324,1.46748975691,4.91084299465
4.89972864403,7.21334388162,-0.736448309604,3.14738254784
3.70508225943,0.564568130838,-2.12038637612,3.88392210104
-3.40956412516,-1.90420761994,-1.60432444264,-0.489538345768
-1.40421050975,-3.36298337072,-3.89826250916,-1.76299879257
2.43114310566,0.868240878503,-3.47220057567,2.19354076062
-1.17350327893,6.44946512772,-0.826138642189,5.63008031382
7.13185033647,1.83068937694,-1.63007670871,4.69661986701
2.67720395189,2.16191362617,-1.35401477522,5.90315942021
-1.26744243271,6.19313787539,-1.01795284174,6.1296989734
4.8879111827,10.4743621246,-0.00189090825734,7.0462385266
-1.80673520188,7.67558637383,-1.11582897477,4.54277807979
0.868618413522,4.73681062305,-0.709767041291,-0.0606823670114
-2.79602797107,1.47803487227,-1.08370510781,-0.574142813815
-4.64067435566,4.26925912149,1.49235682567,4.52239673938
-6.10532074025,7.94048337072,2.23841875916,4.22893629257
-3.33996712484,7.26170761994,0.36448069264,3.02547584577
-0.624613509433,0.432931869167,-1.93945737388,1.19201539897
-3.64925989402,-4.04584388161,-3.07339544039,-1.73144504784
-6.20390627861,-2.66461963239,-3.42733350691,-2.02490549464
-6.4385526632,-2.94339538318,-3.08127157343,-2.38836594145
-3.18319904779,0.237828866047,-2.16520963994,0.408173611746
-2.29784543239,-5.13094688473,-4.45914770646,-2.18528683506
-7.11249181697,-11.3597226355,-5.93308577298,-5.90874728186
-9.30713820157,-5.17849838629,-4.64702383949,-6.56220772867
0.958215413841,-0.75727413706,-5.49096190601,-1.70566817547
-0.796430970746,0.233950112161,-3.32489997253,-0.0291286222764
-4.06107735534,1.11517436138,-1.30883803905,-0.232589069081
-3.75572373993,-3.4236013894,-5.37277610556,-1.86604951589
-5.51037012452,0.207622859816,-5.49671417208,0.800490037309
3.08498349089,3.79884710904,-4.6206522386,0.797029590505
-4.9696628937,1.10007135826,-5.80459030512,-1.1064308563
-7.39430927829,-3.86870439252,-4.83852837163,-4.8098913031
1.54104433711,-4.9074801433,-5.07246643815,-3.27335174991
0.126397952525,-1.07625589407,-3.46640450466,-0.156812196714
-0.808248432069,5.64496835515,-1.58034257118,0.579727356482
1.19710518335,6.14619260437,-2.2042806377,2.65626690968
-6.67754120125,-3.76258314641,-4.31821870422,-3.22719353713
-8.87218758585,-7.53135889718,-5.70215677073,-5.25065398393
0.453166029569,-1.52013464797,-3.48609483725,0.625885569263
-0.511480355024,-1.93891039875,-3.90003290377,0.022425122459
-3.69612673961,0.782313850475,-3.74397097028,-1.07103532435
-5.2707731242,-1.7564619003,-1.9679090368,-4.56449577115
-6.8854195088,-6.63523765108,-2.21184710332,-5.42795621795
1.43993410662,-2.96401340186,-0.235785169836,-2.86141666476
-2.39471227798,-0.422789152639,-1.74972323635,-1.98487711156
0.730641337432,2.49843509658,-1.34366130287,1.86166244163
5.14599495284,-3.8003406542,-3.17759936939,0.0282019948263
3.53134856825,-6.25911640497,-4.3515374359,-3.32525845198
0.83670218366,-2.96789215575,-0.0854755024211,-3.12871889878
-2.20794420093,-2.77666790652,0.370586431061,-4.55217934559
-6.37259058552,0.404556342699,1.46664836455,-3.43563979239
-8.79723697012,-7.10421940808,-1.67728970197,-7.3491002392
-9.7018833547,-10.6729951589,-1.45122776849,-9.222560686
-3.31652973929,-8.53177090964,-2.625165835,-3.07602113281
0.808823876112,-0.660546660423,-2.03910390152,-1.66948157961
-0.54582250848,0.0706775888029,0.35695803196,-3.99294202642
-1.62046889307,-6.06809816198,-0.686980034558,-4.92640247322
1.16488472234,-6.80687391276,-0.370918101074,-3.89986292003
-0.969761662251,-4.24564966353,1.62514383241,-3.03332336683
1.92559195316,0.925574585686,1.85120576589,-0.0767838136344
1.52094556856,-1.23320116509,3.84726769937,0.439755739559
0.14629918398,-3.59197691587,4.36332963286,-0.993704707245
1.25165279939,-2.88075266665,5.05939156634,0.842834845951
5.3770064148,4.39047158257,7.01545349982,4.68937439915
9.4423600302,8.74169583179,6.59151543331,7.56591395234
5.31771364561,5.02292008101,6.66757736679,4.62245350554
2.87306726103,-1.28585566976,7.49363930027,0.168993058733
0.808420876427,-4.27463142054,6.55970123375,-1.39446738807
-0.326225508157,-0.77340717132,6.65576316724,-2.23792783488
3.93912810725,4.7578170779,6.28182510072,-0.00138828168201
4.93448172265,3.51904132713,5.25788703421,1.71515127151
2.95983533807,0.310265576343,6.08394896769,1.25169082471
0.155188953475,0.101489825567,7.17001090117,-0.921769622095
-4.48406613371,-9.50760901161,-4.96574127908,-10.101587936
-2.58151317295,-5.69609892875,-4.24457187902,-9.55805161028
-3.49896021218,-3.84458884589,-4.28340247895,-8.15451528451
-3.38640725141,-5.73307876302,-4.88223307889,-7.23097895875
-1.62385429065,-5.97156868016,-3.47106367883,-6.65744263298
-3.39130132988,-2.05005859731,-1.89989427876,-2.04390630722
-0.748748369107,4.95145148555,0.941275121304,1.81963001854
-0.276195408347,9.18296156841,1.17244452137,0.0231663443083
1.01635755243,-5.09552834873,-3.65638607857,-1.35329732993
-3.5410894868,-5.77401826586,-3.5652166785,-2.45976100416
-2.68853652605,-6.64250818301,1.18595272156,-3.7162246784
-2.12598356527,0.449001899855,2.12712212162,-2.41268835263
6.74656939549,3.23051198271,0.478291521689,-1.09915202687
1.95912235626,-0.177977934429,1.09946092175,0.504384298896
-3.57832468297,-5.02646785157,1.85063032182,-0.63207937534
-5.10577172221,0.725042231294,2.07179972188,-1.34854304958
-0.60321876144,-1.68344768585,-0.317030878054,-3.28500672381
0.959334199331,4.40806239701,0.384138522009,-0.611470398047
-3.01811283991,-4.50042752013,1.83530792207,-4.75793407228
-5.09555987914,-4.87891743727,1.79647732214,-3.42439774652
-6.61300691837,-3.8174073544,2.7176467222,-2.25086142075
-5.90045395761,0.634102728451,3.92881612227,0.22267490501
-3.63790099684,8.17561281131,2.16998552233,0.596211230775
4.09465196393,0.987122894177,2.80115492239,-1.58025244346
-0.0627950753042,-2.47136702297,2.31232432246,-3.9867161177
-8.22024211453,-2.96985694011,-0.616506277476,-6.25317979193
0.472310846235,2.98165314276,0.424663122587,-2.25964346617
3.204863807,5.73316322561,0.665832522651,-0.396107140403
-6.05258323223,1.60467330847,0.317001922716,-0.962570814638
-6.36003027146,-2.05381660866,1.77817132278,-3.06903448887
-0.907477310699,2.10769347419,3.98934072284,1.01450183689
-0.774924349927,5.89920355706,1.60051012291,2.04803816266
1.14762861084,3.49071363991,0.381679522974,-1.12842551158
0.140181571602,4.48222372277,0.692848923038,4.82511081418
0.682734532369,1.80373380564,2.0440183231,4.23864713995
3.94528749314,5.18524388849,2.24518772317,4.27218346571
10.3578404539,3.27675397135,-1.43364287677,5.02571979148
3.97039341467,1.55826405421,-1.72247347671,1.94925611724
-4.87705362456,-2.88022586293,-0.921304076641,-2.23720755699
-5.77450066379,-2.86871578007,-1.92013467658,-2.49367123123
-3.71194770303,-4.3872056972,-1.44896527651,-1.07013490546
6.16060525773,-1.02569561435,-0.0277958764491,1.7334014203
1.69315821851,1.08581446851,-0.636626476384,2.77693774606
4.33571117928,-1.48267544862,-3.71545707632,3.35047407183
-4.76173585996,-9.16116536577,-2.05428767626,-3.85598960241
-8.89918289919,-2.3996552829,-0.103118276191,-2.75245327664
-6.25662993842,-3.26814520004,-1.26194887613,-1.25891695088
-7.01407697766,-5.38663511719,0.599220523936,-3.88538062511
-11.0615240169,-6.09512503433,1.520389924,-4.81184429935
-12.4089710561,-5.86361495146,2.15155932406,-2.22830797358
5.43358190464,0.60789513139,0.542728724129,3.23522835218
3.39613486541,3.31940521426,0.233898124194,3.26876467795
6.61868782618,7.68091529711,2.51506752426,5.90230100371
4.72124078694,4.96242537997,2.38623692432,6.87583732947
4.20379374771,-0.106064537162,3.66740632439,5.85937365524
1.14634670848,2.60544554569,4.31857572445,7.592909981
6.21889966924,6.30695562856,2.81974512451,8.92644630677
7.25145263001,6.21846571141,1.71091452458,7.00998263253
5.68400559078,3.47997579427,3.86208392464,6.0435189583
3.36655855155,-0.57851412287,3.82325332471,5.42705528406
9.84911151232,1.50299595999,3.66442272477,9.13059160982
6.76166447309,4.33450604285,1.14559212483,7.73412793559
2.47421743385,6.34601612571,1.7767615249,6.04766426135
3.04677039462,-0.142473791428,3.74793092496,2.62120058712
3.25932335539,-2.17096370857,3.09910032503,2.05473691288
1.82187631615,-0.979453625703,0.450269725092,2.19827323865
-1.08557072308,-0.487943542845,-0.618560874844,2.46180956441
-0.0330177623182,0.613566540014,0.322608525221,2.82534589018
-2.69046480155,-5.31492337713,0.253777925285,-1.58111778406
-2.73791184078,-6.07341329427,-2.33505267465,-3.19758145829
-2.70535888001,3.41809678859,-3.89388327459,2.71595486747
1.31719408075,3.59960687145,0.0872861254775,1.46949119323
1.24974704153,-0.0788830456804,0.878455525542,0.663027518998
1.74230000229,-0.87737296283,-0.370375074393,1.89656384476
4.24485296306,-6.34586287996,-3.37920567433,0.0401001705268
2.79740592383,-2.36435279711,-2.32803627427,-0.686363503708
1.47995888459,4.01715728575,-2.9768668742,2.74717282206
6.14251184536,2.58866736862,-3.70569747414,3.11070914782
-0.964935193871,-6.64982254853,-4.17452807407,-3.10575452642
-1.81238223311,-5.18831246567,-3.69335867401,-0.252218200651
3.13017072766,0.583197617198,-1.28218927394,1.99131812511
7.89272368843,9.28470770005,-0.291019873879,5.62485445088
5.92527664919,9.26621778291,-3.59985047382,5.25839077664
3.60782960996,1.06772786577,-4.97868107375,-0.808072897593
-1.68961742927,-4.40076205137,-1.23751167369,-0.45453657183
-4.2170644685,-1.01925196851,-0.186342273622,3.72899975394
1.68548849226,0.802258114352,-2.59517287356,3.0725360797
5.01804145303,4.45376819721,-1.76400347349,6.61607240546
9.35059441379,9.37527828007,-1.74283407343,14.4796087312
8.59314737457,5.60678836294,-1.76166467337,10.843145057
9.82570033534,6.57829844579,-0.920495273302,7.28668138276
13.7282532961,13.0698085287,-0.229325873237,11.0302177085
15.1208062569,12.1413186115,-0.358156473174,10.5537540343
9.24335921764,0.112828694371,-2.52698707311,3.85729036005
2.1159121784,1.64433877723,-2.04581767304,0.290826685818
4.05846513917,1.36584886009,-2.11464827298,2.63436301158
7.66101809993,10.267358943,0.126521127084,4.90789933734
7.4335710607,10.6288690258,-0.872309472854,6.23143566311
4.95612402147,6.71037910867,-1.88114007279,3.11497198887
4.66867698223,0.941889191534,-2.49997067272,-0.421491685362
2.861229943,3.4133992744,2.00119872734,-1.3879553596
0.193782903771,9.11490935725,2.6723681274,0.0455809661671
4.48633586454,7.31641944011,0.55353752747,0.0591172919321
2.9888888253,0.127929522976,-0.605293072467,-0.167346382303
3.31144178607,0.759439605827,0.785876327596,1.71618994346
2.18399474684,1.01094968869,0.78704572766,-0.300273730774
2.90654770761,2.47245977155,0.908215127725,0.653262594991
2.96910066838,0.643969854413,0.41938452779,-3.96320107924
-0.288346370864,-0.444520062731,0.820553927853,-5.26966475348
-3.32579341009,-7.76300997986,-1.11827667208,-6.70612842772
-0.933240449325,-1.97149989701,0.652892727981,-3.38259210195
3.93931251144,2.37001018586,1.59406212805,-0.849055776189
2.82186547221,-1.86847973128,0.0852315281118,-3.60551945042
-7.30558156702,-6.92696964843,-0.743599071826,-8.44198312466
1.23697139374,-8.62545956557,-0.312429671761,-6.41844679889
0.139524354512,-8.03394948271,0.158739728302,-5.55491047313
-7.47792268472,-4.29243939985,0.00990912836824,-6.86137414737
-5.53536972396,1.36907068302,0.461078528431,-3.0978378216
-3.25281676319,-8.94941923413,-1.1477520715,-6.74430149584
-10.6702638024,-17.1479091513,-0.966582671441,-12.2607651701
-11.4577108417,-11.3063990684,0.834586728626,-10.8772288443
-7.02515788088,-4.14488898555,1.94575612869,-6.48369251854
-16.7926049201,-3.89337890269,1.59692552875,-8.89015619278
-11.0000519594,-4.91186881983,0.128094928818,-6.36661986701
-14.4474989986,-9.42035873697,0.779264328883,-8.77308354125
-14.0449460378,-7.84884865411,0.780433728945,-10.2595472155
-7.65239307705,5.50266142876,3.56160312901,2.43398911028
-10.9798401163,1.48417151161,2.15277252907,3.80752543604
-1.52960392441,-5.00509084301,-1.37484738372,-5.51880087209
-4.3917705949,-7.18226091832,-0.766390141458,-7.33011527765
-3.43393726538,-5.08943099363,0.162067100806,-7.8814296832
-2.22610393586,2.48339893106,1.10052434307,-3.25274408876
-2.99827060634,1.49622885577,-0.511018414669,-1.46405849432
-5.34043727683,-3.72094121954,-2.05256117241,-2.87537289988
4.61739605269,-2.37811129485,-3.01410393014,-0.416687305436
0.345229382212,-0.425281370161,0.654353312122,-0.748001710992
-3.51693728827,0.647548554538,-2.25718944561,-1.03931611655
0.340896041249,4.53037847923,-2.38873220335,-0.630630522108
5.51872937077,0.563208403917,0.489725038911,-0.0719449276658
3.16656270029,3.10603832861,3.12818228117,4.06674066678
5.78439602981,5.7588682533,1.73663952344,4.33542626122
1.22222935932,3.411698178,-1.6349032343,-0.605888144339
0.77006268884,5.94452810269,0.0835540079643,-0.647202549897
-4.88210398164,-1.85264197261,0.792011250229,-2.98851695545
-4.80427065212,-10.1298120479,-1.19953150751,-7.83983136101
1.90356267739,-6.78698212322,-0.861074265244,-5.34114576657
2.57139600692,3.48584780146,1.23738297702,-2.40246017213
5.48922933643,4.28867772616,0.605840219281,-1.28377457769
-2.31293733405,0.281507650849,0.164297461544,-2.73508898324
4.39489599547,-6.83566242446,-0.307245296191,0.2835966112
1.37272932499,-3.33283249976,0.251211946072,3.59228220564
-2.80943734549,-0.880002575075,1.15966918834,2.16096780008
-0.801604015978,1.46282734963,1.6981264306,3.00965339453
-2.19377068646,-5.87434272568,-1.05341632714,-4.27166101103
2.69406264306,-10.641512801,-0.364959084874,-7.42297541659
0.731895972582,-8.6786828763,-1.25650184261,-6.37428982214
-0.0302706979055,-0.255852951603,-0.608044600349,-3.1056042277
-5.00243736838,-1.29302302691,0.500412641915,-3.05691863326
-9.92460403887,-6.60019310222,1.01886988418,-5.62823303882
-0.486770709344,-5.32736317753,2.44732712644,-3.45954744438
-0.358937379831,-4.55453325283,2.3957843687,-1.06086184993
-2.13110405031,-1.81170332815,-0.325758389032,-1.06217625549
4.28672927921,-1.60887340344,-0.707301146767,-0.993490661049
3.69456260873,-4.16604347875,-1.2488439045,-4.14480506661
3.20239593824,-3.45321355406,-1.63038666224,-1.23611947217
2.55022926776,-0.760383629364,1.11807058002,3.70256612228
-1.21193740272,5.85244629533,1.47652782229,6.34125171672
2.5458959268,7.29527622002,1.04498506455,3.92993731116
4.35372925631,4.89810614471,-0.156557693188,5.11862290561
-0.47843741416,1.0709360694,0.101899549076,4.55730850005
4.76939591535,2.29376599409,-0.539643208662,2.25599409449
4.60722924487,7.07659591879,-1.3011859664,7.64467968893
7.1550625744,12.0294258435,1.17727127587,9.28336528337
4.11289590391,4.06225576818,2.51572851813,5.01205087782
0.530729233433,3.61508569287,2.51418576039,5.26073647226
7.71856256295,10.0179156176,1.12264300265,10.2694220667
6.57639589247,8.40074554225,2.53110024492,10.2281076611
1.77422922198,15.643575467,4.82955748718,12.7567932556
5.95206255151,7.74640539164,2.36801472945,8.95547885003
-1.77010411898,2.88923531633,0.466471971709,4.55416444447
-1.41227078946,5.07206524102,1.49492921397,7.19285003891
-1.57443745995,11.5048951657,1.92338645624,7.17153563336
-0.00660413042351,6.51772509042,-2.0581563015,4.1302212278
2.44122919909,-1.01944498489,-2.23969905924,-1.12109317776
-0.820937471384,-7.5766150602,-0.591241816974,-4.65240758332
-0.533104141869,-7.7637851355,-1.88278457471,-6.63372198887
0.574729187647,-5.29095521081,-2.84432733245,-5.58503639443
2.41256251717,-0.668125286116,-3.04587009018,-1.15635079999
-7.89960415331,-7.20529536143,-2.58741284792,-4.12766520555
-2.4917708238,-7.70246543673,-1.64895560566,-4.12897961111
-1.76393749427,-3.31963551205,-0.420498363394,-2.02029401666
-3.30610416476,0.313194412651,-0.372041121131,1.01839157778
0.891729164759,3.34602433735,-0.933583878867,0.217077172221
1.20956249427,-6.38114573796,-3.5551266366,-6.69423723334
-9.48260417621,-14.4783158133,-3.52666939434,-8.38555163889
-3.67477084668,-10.2354858886,-2.45821215208,-6.70686604445
0.273062482833,-0.0326559638779,-0.449754909814,-0.158180450009
1.17089581236,-0.00982603918965,-2.66129766755,-0.599494855567
-2.50127085813,0.763003885506,-1.99284042529,-0.760809261123
-7.28343752861,-6.43416618981,-2.01438318302,-3.30212366668
-3.26560419909,-4.30133626511,-1.70592594076,-3.21343807224
4.98222913043,6.47149365958,1.1125313015,4.2552475222
1.15006245994,4.20432358428,1.22098854377,3.40393311665
0.40789578946,0.397153508973,1.12944578603,3.40261871109
1.50572911898,0.929983433663,2.17790302829,1.37130430553
-2.0964375515,3.22281335836,1.43636027056,2.26998989997
-0.268604221987,4.40564328305,-0.73518248718,1.26867549441
-0.120770892463,10.4984732077,0.783274755084,3.50736108886
-5.82293756295,1.55130313244,-0.358268002654,-0.693953316701
-4.72510423342,-2.58586694287,-0.959810760389,-3.31526772226
-1.64727090392,0.426962981815,-0.111353518127,-0.246582127815
3.40056242561,8.59979290651,1.09710372414,6.53210346662
-3.37160424488,12.5026228312,2.5855609664,8.20078906107
-1.88377091535,0.405452755906,1.11401820866,4.58947465551
-4.07593758584,-2.6017173194,0.442475450927,4.38816024995
-1.43810425632,-3.89888739471,0.350932693191,1.9268458444
1.7497290732,2.30394252998,-0.230610064546,4.05553143884
3.08756240272,5.27677245467,0.657847177717,7.02421703328
1.16539573224,4.66960237936,1.86630441998,6.20290262772
1.49322906175,-1.72756769594,-0.905238337757,3.32158822216
-0.268937608722,-0.154737771249,-0.106781095494,3.84027381661
1.80889572079,4.46809215345,0.56167614677,4.57895941105
-0.723270949689,1.76092207815,-0.149866610966,0.687645005492
0.0945623798252,1.14375200283,0.178590631298,3.61633059994
-6.29760429065,0.296581927527,1.73704787356,2.90501619438
2.75022903887,4.68941185222,3.86550511582,4.87370178882
-0.111937631613,6.67224177691,4.37396235809,7.29238738326
-1.7941043021,7.5650717016,2.56241960035,7.0410729777
-2.66627097258,1.7879016263,-0.679123157386,3.42975857215
0.751562356934,-2.45926844901,0.729334084877,-1.58155583341
-0.460604313543,-1.26643852432,1.64779132714,-1.82287023897
0.247229015971,6.41639140037,0.186248569406,2.69581535548
-2.03493765451,4.35922132507,1.12470581167,0.304500949916
0.372895675006,2.74205124976,1.61316305393,0.973186544359
-12.1392709955,-4.99511882554,0.381620296193,-5.9981278612
-13.461437666,-4.60228890085,1.61007753846,-7.73944226676
-2.34360433643,0.130541023842,1.40853478072,-4.99075667231
-2.52577100692,-2.35662905146,0.936992022984,-6.48207107787
-7.5279376774,-5.00379912677,1.11544926525,-5.94338548343
-1.81010434787,-8.22096920208,-0.176093492488,-6.48469988899
0.647728981639,-3.98813927739,0.132363749774,-4.53601429454
3.14556231116,3.0046906473,0.670820992038,-0.827328700101
5.53339564068,0.347520572002,-1.9107217657,-1.35864310566
7.3612289702,-1.2696495033,-1.26226452344,-2.24995751122
3.26906229971,-7.86681957862,-1.17380728117,-4.62127191678
5.72689562923,-2.58398965392,-2.13535003891,-2.07258632233
2.81472895875,1.43884027077,0.143107203356,0.306099272109
5.24256228827,2.30167019546,0.661564445618,1.98478486655
5.22039561778,-1.28549987984,-2.33997831212,-1.996529539
2.93822894731,-7.81266995515,-3.32152106986,-5.94784394456
-3.43393772318,-3.94984003046,-0.0430638275921,-3.39915835012
4.80389560634,1.94298989423,0.715393414672,-1.07047275568
4.27172893586,2.76581981893,-0.846149343064,-3.31178716124
1.15956226538,-3.70135025637,-0.537692100801,-5.74310156679
0.327395594897,-11.6885203317,-4.06923485854,-8.91441597235
0.545228924413,-2.48569040699,-2.04077761628,0.18426962209
3.79419879362,9.83825465516,2.51152635719,7.99590086546
1.09248928387,9.86044906772,1.09864247848,5.4372875366
-2.00922022587,5.97264348027,0.725758599778,3.47867420774
