-45.6060174419,-37.9869222384,18.6380632267,-61.397943314
-36.5306507794,-36.6438936893,17.5255752724,-57.690547061
-39.6352841169,-35.9408651403,16.623087318,-60.543150808
-35.8299174544,-32.3778365913,17.8105993637,-60.675754555
-39.824550792,-28.4248080422,18.2081114093,-55.8683583021
-40.9791841295,-40.3017794932,14.7856234549,-59.0409620491
-39.233817467,-36.3887509442,15.3731355006,-55.5935657961
-39.7584508046,-33.4257223952,16.4406475462,-51.4561695431
-35.3530841421,-30.3826938461,16.4581595919,-50.9387732902
-31.9477174796,-26.6696652971,15.4356716375,-42.1813770372
-33.8223508172,-30.2166367481,16.7531836832,-36.6939807842
-35.8569841547,-25.803608199,14.5806957288,-42.8865845312
-32.7816174922,-19.72057965,12.2082077744,-43.9091882782
-31.6862508297,-21.727551101,11.0857198201,-34.4117920253
-26.7608841673,-16.8245225519,10.5032318657,-22.0043957723
-24.1455175048,-7.63149400292,8.94074391137,-9.30699951932
-17.4701508423,-2.21846545389,6.18825595701,-0.559603266346
-18.6047841799,1.96456309514,2.23576800265,10.3977929866
-5.88941751739,10.2675916442,6.12328004829,5.8151892396
3.79594914508,14.0906201932,5.96079209394,11.1625854926
14.8913158075,18.6836487422,5.60830413958,27.4299817456
11.85668247,22.4666772913,1.40581618522,37.4273779985
-0.51795086751,19.0097058403,-3.42667176914,40.6247742515
6.94741579496,26.1427343893,-2.5091597235,39.1821705045
23.3627824574,22.8157629383,-6.83164767785,40.1895667575
25.9781491199,17.1487914874,-7.05413563221,36.1869630104
22.4135157824,17.0218200364,-8.52662358657,36.7043592634
28.7688824448,23.9048485854,-9.44911154093,37.9117555164
23.3642491073,21.5878771345,-10.9415994953,40.1791517694
26.0896157698,32.9309056835,-13.0940874496,51.6465480223
30.3649824322,30.8739342325,-14.566575404,41.9039442753
36.6103490947,18.6769627815,-16.5190633584,55.3113405283
36.3257157572,22.5099913306,-14.5515513127,53.3987367813
42.6810824197,28.0830198796,-17.0140392671,53.3061330342
44.7864490821,38.6160484286,-21.1465272214,51.6135292872
47.8918157446,21.7490769777,-20.8390151758,50.6309255402
54.0271824071,11.3821055267,-21.5915031302,46.6383217932
43.3725490695,8.03513407573,-19.6339910845,35.4357180461
41.917915732,10.4581626248,-20.3464790389,28.5831142991
39.0932823945,10.1211911738,-18.5389669932,25.3905105521
24.898649057,3.73421972281,-17.6714549476,21.0479068051
10.8040157194,15.3872482718,-12.3039429019,22.035303058
24.9993823819,6.90027682087,-13.4864308563,18.772699311
27.9347490444,3.6233053699,-15.7689188107,15.410095564
11.7301157068,9.88633391893,-10.611406765,12.567491817
9.3454823693,13.559362468,-8.21389471937,9.39488806995
25.4208490318,5.18239101699,-9.49638267373,6.85228432292
30.4862156942,4.73541956602,-8.39887062809,14.3896805759
14.5015823567,8.20844811505,-6.21135858245,9.82707682887
21.0569490192,15.8114766641,-4.67384653681,18.0544730819
17.5523156817,16.1345052131,-1.92633449117,18.9318693348
15.4576823441,16.9475337621,-0.468822445524,9.8192655878
15.8430490066,10.4005623112,-3.76131039988,3.15666184078
12.9884156691,9.09359086019,-3.11379835424,7.74405809375
8.59378233153,7.79661940923,-1.6562863086,3.10145434673
6.389148994,9.81964795825,-2.10877426296,-0.341149400295
5.74451565648,1.55267650728,-2.73126221731,-5.74375314732
3.28988231895,6.63570505631,0.726249828327,-4.85635689434
1.50524898142,0.0487336053411,-0.0762381260283,-11.2389606414
-3.67938435611,-3.25823784563,-3.00872608039,-13.0315643884
-7.11401769364,-5.5952092966,-3.34121403475,-15.5241681354
-9.91865103117,-7.13218074757,-2.2937019891,-16.4867718824
-12.6232843687,-8.77915219854,-1.51618994346,-19.3893756295
-13.2479177062,-7.45612364951,-2.04867789782,-20.6619793765
-9.84255104376,-2.13309510048,-0.751165852178,-14.7545831235
-6.32718438129,-8.03006655146,-0.783653806537,-11.0871868705
-1.33181771882,2.68296199758,0.583858239106,-0.0697906175619
4.66354894364,4.7759905466,4.02137028475,6.48760563541
-8.79108439388,-5.88098090437,1.85888233039,-7.12499811161
-9.74571773141,1.94204764466,-2.19360562397,-7.65760185863
0.609648931058,-1.35492380631,-2.61609357833,-4.26020560566
8.61501559352,0.878104742718,-1.67858153269,0.307190647317
0.420382255998,7.70113329175,-1.48106948704,6.61458690029
2.12574891847,10.7041618408,-1.1935574414,10.7519831533
2.42111558094,10.1771903898,-2.46604539576,10.5693794062
-2.29351775659,8.28021893883,0.171466649883,10.6467756592
8.49184890588,6.54324748787,-0.441021304476,10.1341719122
6.07721556835,12.8062760369,3.04649074117,14.8715681652
7.18258223082,8.38930458593,1.90400278681,16.1689644181
12.4379488933,10.472333135,2.44151483245,15.9263606711
7.16331555576,14.415361684,3.13902687809,13.1837569241
7.05868221823,12.608390233,1.34653892374,11.5311531771
10.4140488807,8.64141878204,0.834050969375,6.25854943005
6.75941554317,6.99444733107,2.64156301502,4.42594568302
1.37478220564,4.8074758801,2.63907506066,2.213341936
-6.43985113189,4.43050442913,2.7965871063,0.120738188975
-4.93448446942,7.18353297816,3.99409915195,2.17813444195
-2.96911780695,0.106561527191,1.65161119759,-0.834469305073
-6.76375114448,-6.12040992378,0.999123243228,-5.1870730521
-7.66838448201,-3.92738137475,1.02663528887,-6.74967679912
-9.47301781954,-3.05435282572,3.47414733451,-3.71228054615
-14.7676511571,-4.99132427669,3.57165938015,-9.83488429317
-12.4622844946,-7.45829572767,2.8691714258,-7.77748804019
-4.65691783213,-2.76526717863,2.93668347144,-5.87009178722
-9.86155116966,-1.50223862961,4.09419551708,-6.87269553424
-4.75618450719,-4.20921008058,2.93170756272,-10.3552992813
-5.31081784472,-8.55618153155,-0.240780391638,-10.7779030283
-9.16545118225,-9.53315298252,-0.753268345996,-8.85050677532
-9.61008451978,-9.10012443349,-0.355756300352,-11.7331105223
-2.02471785731,-7.50709588446,0.511755745289,-12.8057142694
-2.64935119484,-9.51406733543,0.30926779093,-11.5783180164
-6.33398453237,-9.4210387864,-0.113220163428,-9.07092176341
-5.1686178699,-9.50801023737,0.404291882214,-11.9035255104
-12.3532512074,-4.98498168834,2.05180392786,-9.19612925746
-10.677884545,-7.03195313931,0.529315973497,-7.33873300449
-4.47251788249,-9.54892459028,1.35682801914,-7.18133675151
-2.74715122002,-9.54589604125,0.0343400647835,-8.45394049853
-11.2117845575,-12.5328674922,-0.838147889575,-9.45654424556
-10.6964178951,-12.4198389432,0.589364156065,-8.79914799258
-8.68105123261,-10.1968103942,1.12687620171,-6.00175173961
-5.70568457014,-8.42378184514,1.26438824735,-6.71435548663
-8.47031790767,-8.31075329611,0.921900292991,-9.44695923366
-10.1149512452,-12.9077247471,-0.590587661367,-10.7795629807
-5.10958458273,-5.32469619805,1.32692438428,-9.84216672771
-4.34421792026,-7.35166764902,2.50443642992,-9.09477047473
-4.97885125779,-8.43863909999,3.78194847556,-9.51737422175
-8.35348459532,-9.35561055096,3.9994605212,-9.26997796878
-5.03811793285,-5.21258200193,3.06697256684,-8.4025817158
-3.11275127038,-7.32955345291,2.63448461248,-8.48518546283
-9.91738460791,-6.78652490388,4.27199665813,-8.18778920985
-9.47201794544,-3.58349635484,5.06950870377,-5.69039295688
3.16334871703,-0.720467805815,5.29702074941,2.4970032961
2.4087153795,-3.12743925678,5.06453279505,2.00439954908
-1.22591795803,1.03558929225,5.36204484069,0.201795802052
-6.03055129556,4.32861784127,5.77955688634,-2.25080794497
-8.05518463309,2.1016463903,5.08706893198,-3.773411692
-7.66981797061,1.77467493933,5.13458097762,-1.13601543902
-3.86445130815,-5.17229651164,5.89209302326,-4.94861918605
1.95562863372,8.63521438954,1.48641715116,11.0214135174
2.34423339934,8.02091967474,-0.317757479173,8.98237673961
7.82283816495,5.61662495994,-2.34193210951,8.65333996177
5.05144293056,0.102330245154,-3.31610673984,3.59430318394
6.17004769617,-0.441964469646,-3.58028137017,1.63526640611
0.518652461778,2.42374081556,-2.90445600051,0.106229628272
0.807257227389,5.04944610077,-0.858630630837,1.82719285044
5.945861993,8.01515138597,2.49719473883,4.3981560726
12.1844667586,8.74085667117,1.4830201085,7.50911929477
13.9530715242,5.48656195638,1.28884547816,6.52008251694
14.0416762898,9.99226724158,1.45467084783,10.6310457391
14.7802810554,15.3179725268,2.64049621749,16.7820089613
8.34888582105,12.063677812,3.02632158716,9.98297218344
8.07749058666,8.02938309719,2.16214695683,7.5039354056
4.99609535228,13.6450883824,2.48797232649,11.3248986278
1.60470011789,13.2107936676,2.56379769616,7.65586184993
2.0333048835,7.00649895281,2.60962306583,3.6568250721
2.14190964911,6.46220423801,3.6754484355,2.73778829427
1.99051441472,1.14790952321,3.36127380516,3.94875151643
1.02911918033,1.72361480842,1.51709917483,3.3897147386
-4.89227605406,1.70932009362,0.0529245444959,-3.29932203923
-9.11367128845,0.495025378823,0.328749914162,-2.08835881707
-4.77506652284,2.71073066403,2.16457528383,-2.2273955949
-0.556461757227,-6.39356405077,-0.149599346503,-5.89643237274
-3.05785699162,-4.21785876556,1.89622602316,-4.08546915057
-2.13925222601,-1.45215348036,1.03205139283,-1.2445059284
-4.2306474604,0.853551804845,1.9778767625,-2.05354270624
-6.02204269479,-0.27074290995,2.92370213216,-1.49257948407
-1.17343792917,0.694962375252,2.81952750183,0.808383738096
-3.80483316357,2.16066766046,3.5853528715,1.51934696026
2.61377160205,3.80637294566,2.07117824116,7.89031018243
5.25237636765,1.96207823086,1.09700361083,5.0512734046
-4.84901886673,3.03778351607,1.9928289805,0.492236626761
-2.39041410112,-3.76651119873,-1.10134564984,-3.10680015107
-7.37180933551,-5.90080591352,-0.75552028017,-6.43583692891
-9.0732045699,-7.34510062832,-0.659694910502,-8.69487370674
-4.91459980429,-5.38939534311,-1.32386954084,-7.22391048457
-4.52599503868,-6.42369005791,-0.0180441711691,-4.25294726241
-5.86739027307,-3.03798477271,0.607781198498,-1.59198404024
-3.38878550746,-9.4722794875,-3.11639343184,-6.87102081807
-1.78018074185,-6.2865742023,-1.74056806217,-6.31005759591
-2.29157597624,-6.52086891709,-0.634742692502,-5.70909437374
2.71702878938,-6.75516363189,-1.09891732284,-1.27813115158
1.02563355499,-2.98945834668,-0.20309195317,-1.97716792941
-1.8857616794,-0.853753061481,-0.417266583501,0.503795292757
-2.34715691379,-0.778047776275,-1.46144121384,-0.655241485078
0.711447851816,-10.0023424911,-1.47561584417,-4.39427826291
-0.689947382572,-2.18663720586,-0.209790474501,-0.373315040744
-1.81134261696,-8.26093192066,-1.45396510484,-2.33235181858
-4.40273785135,-6.63522663546,0.631860264832,-5.71138859641
-9.92413308574,-4.25952135025,0.027685634499,-7.46042537425
-8.91552832013,-5.21381606505,-0.696488995836,-7.09946215208
-5.82692355452,-8.10811077985,-0.730663626167,-7.25849892991
-6.44831878891,-4.98240549464,-0.214838256501,-5.82753570775
-7.7197140233,-8.75670020944,-2.12901288683,-7.63657248558
-8.28110925769,-4.99099492424,-2.38318751717,-7.63560926341
-6.73250449208,-9.33528963903,-2.6073621475,-6.09464604125
-7.63389972647,-10.3295843538,-1.01153677783,-10.1636828191
-2.33529496086,-4.57387906862,0.364288591833,-8.33271959692
-4.94669019525,-7.67817378342,0.3701139615,-4.87175637475
-3.82808542964,-5.40246849821,-0.0940606688346,-4.16079315258
0.490519335977,-5.45676321301,-0.688235299167,-2.76982993042
-2.15087589841,-1.94105792781,0.2775900705,-0.10886670825
-2.1622711328,1.0846473574,0.493415440165,1.61209651392
-5.54366636719,2.6603526426,0.699240809832,0.263059736082
1.56493839842,-3.5239420722,-1.5749338205,-2.39597704175
-0.726456835971,-6.07823678699,-1.87910845083,-4.92501381958
-1.21785207036,-6.31253150179,-3.41328308117,-5.74405059742
2.83075269525,-9.56682621658,-3.7674577115,-9.35308737525
0.0993574608619,-6.99112093138,-2.95163234183,-10.5521241531
-4.25203777353,-8.18541564617,-2.85580697217,-9.21116093092
-3.54343300792,-3.09971036097,-3.5199816025,-5.80019770875
-2.28482824231,-11.2440050758,-5.99415623283,-6.97923448659
2.6337765233,-7.65829979056,-3.90833086317,-4.25827126442
-2.50761871109,-3.25259450536,-2.7125054935,-6.10730804225
-2.45901394547,0.763110779844,-0.786680123834,-4.56634482009
-0.870409179865,-8.32118393495,-3.14085475417,-8.41538159792
0.0681955857435,-5.18547864975,-1.1050293845,-7.34441837576
3.17680035135,-3.29977336454,0.760795985167,-0.46345515359
-0.82459488303,-0.714068079335,0.226621354834,0.367508068576
6.19400988258,-0.0383627941337,-1.7275532755,-0.0615287092569
3.83261464819,-1.59265750893,-1.32172790583,1.43943451291
-2.8287805862,5.62304777628,1.55409746384,3.60039773508
-4.01017582059,2.67875306148,1.0699228335,2.08136095724
-1.30157105498,3.69445834669,0.735748203168,3.42232417941
-2.29296628937,2.97016363189,0.0115735728341,2.75328740158
-0.674361523757,-1.98413108291,-1.7526010575,-0.395749376259
-2.21575675815,3.3515742023,-1.18677568783,6.12521384591
0.622848007464,-0.512720512499,1.41904968184,2.70617706807
-0.938547226928,0.842984772706,0.7748750515,1.83714029024
-1.31994246132,1.94869005791,0.160700421167,6.63810351241
4.82866230429,1.24439534311,-0.553474209164,7.39906673457
4.11726706991,-0.649899371681,-1.5476488395,3.04002995674
-0.774128164485,-8.57419408648,-5.18182346983,-5.8590068211
-2.76552339887,-1.85848880127,-4.57599810016,-0.138043598929
3.51308136674,0.507216483929,-4.8801727305,1.33291962324
-3.40831386765,-2.99707823087,-4.40434736083,-4.4961171546
7.54029089796,2.86862705434,-0.978521991165,3.10484606757
9.44889566357,0.354332339542,-2.5526966215,0.975809289736
-1.73249957082,-3.69996237525,-4.84687125183,-4.6532274881
-0.833894805208,-0.744257090049,-1.98104588216,-2.91226426593
0.774709960402,0.811448195152,-1.2152205125,-1.48130104376
-1.92668527399,0.237153480361,-0.0893951428316,-3.1803378216
4.67191949162,1.81285876556,0.836430226836,-0.139374599433
3.89052425723,1.44856405077,0.892255596502,-0.348411377266
2.45912902285,3.73426933597,1.78808096617,0.772551844901
4.02773378845,6.26997462117,2.53390633584,0.363515067066
4.22633855406,5.43567990638,4.1297317055,1.52447828923
2.91494331968,7.34138519158,5.83555707517,1.8854415114
-2.18645191472,4.84709047679,5.33138244484,2.28640473357
1.64215285089,3.90279576199,4.0672078145,0.567367955732
-3.27924238349,-0.631498952807,2.46303318417,-1.2716688221
-0.930637617879,-1.5957936676,2.01885855384,-2.81070559994
-2.22203285227,1.6099116176,1.4746839235,-1.26974237777
-6.91342808666,0.545616902808,2.46050929317,1.9912208444
-2.73482332105,1.49132218801,2.73633466284,3.11218406656
0.863781444561,2.90702747321,1.8121600325,2.64314728873
-3.24761378983,2.34273275842,1.38798540217,-0.935889489105
-4.17900902422,1.87843804362,1.82381077184,0.245073733062
-2.21040425861,-0.0258566711746,2.2796361415,3.10603695523
0.648200507003,6.07984861403,2.35546151117,4.40700017739
7.35680527262,8.19555389924,1.51128688084,8.62796339956
6.51541003822,5.19125918444,2.1171122505,9.22892662173
6.78401480383,6.42696446965,1.59293762017,7.97988984389
10.5826195694,8.56266975485,0.748762989837,10.5008530661
8.70122433506,7.18837504006,-1.1654116405,10.9518162882
5.10982910067,8.80408032526,0.0704137291705,9.00277951039
3.16843386628,8.96978561046,0.616239098837,8.77374273256
-1.45909883721,-11.0306795058,-1.18558866279,-12.4481068314
-4.88350648347,-7.83702215138,-0.155944796059,-15.158183397
-4.54791412973,-9.10336479696,-0.996300929322,-11.7282599627
-6.202321776,-7.36970744254,-0.206657062585,-10.5883365283
-4.84672942226,-3.87605008812,1.28298680415,-9.20841309399
-2.97113706853,-2.3923927337,0.402630670889,-4.41848965964
-3.00554471479,-2.11873537927,0.322274537626,-1.35856622528
-1.52995236106,-2.74507802485,-0.838081595637,-2.48864279093
-2.71436000732,-1.17142067043,-0.558437728901,-3.42871935658
2.33123234641,-2.39776331601,-0.388793862165,-2.81879592222
6.48682470015,-3.72410596159,0.0408500045742,-4.04887248787
-0.0875829461147,-0.860448607164,3.00049387131,-0.0589490535185
3.88800940762,0.89320874726,2.27013773805,-0.0190256191663
0.613601761357,5.05686610168,2.40978160479,-0.139102184813
-3.66080588491,1.46052345611,2.41942547152,-0.90917875046
0.494786468829,-0.785819189474,2.65906933826,-2.27925531611
0.630378822563,3.17783816495,4.29871320499,1.15066811825
-4.8540288237,4.25149551937,3.11835707173,0.430591552597
3.97156353003,5.48515287379,2.27800093847,2.10051498695
0.947155883772,8.24881022822,4.07764480521,6.4304384213
-0.867251762495,3.67246758263,3.07728867194,4.92036185566
1.49834059124,12.2161249371,3.64693253868,7.89028529001
-0.376067055025,11.9497822915,3.88657640542,12.0402087244
7.18952529871,7.6434396459,1.49622027215,9.30013215871
10.6051176524,5.28709700033,0.325864138889,6.59005559307
7.94071000618,1.91075435475,-0.874491994373,4.16997902742
4.27630235992,3.32441170917,0.675151872363,2.32990246177
2.60189471365,4.67806906359,1.4247957391,5.89982589613
0.667487067389,2.45172641801,1.36443960584,5.79974933048
1.20307942112,3.30538377243,2.35408347257,7.19967276483
0.0586717748592,8.49904112686,2.25372733931,8.37959619918
4.43426412859,4.95269848128,2.42337120605,7.56951963354
5.14985648233,3.9963558357,2.56301507279,11.1594430679
14.4154488361,5.63001319012,0.652658939523,11.3493665022
