5.67614098838,-9.79070494185,-1.76431322675,-7.67635174419
6.55776179959,-7.87300806285,-0.764817398373,-6.38864590964
0.719382610794,-7.18531118384,0.15467843,-6.28094007508
8.341003422,-7.79761430484,-0.715825741626,-3.04323424053
2.05262423321,-6.50991742583,-0.856329913252,-2.28552840598
4.01424504442,-6.63222054682,-3.08683408488,-3.31782257142
10.2458658556,-2.76452366782,-4.7873382565,-1.48011673687
15.5374866668,-2.70682678881,-3.57784242813,2.57758909769
13.089107478,-10.0691299098,-2.25834659976,-3.72470506776
6.58072828924,-11.8214330308,-4.09885077138,-11.6869992332
3.20234910045,-4.0437361518,-6.59935494301,-8.73929339865
0.333969911655,-1.66603927279,-2.81985911463,-3.33158756409
-1.43440927714,0.181657606212,-2.04036328626,-2.70388172954
-1.13278846593,-2.73064551478,-3.45086745789,-5.39617589499
-1.85116765472,0.437051364228,-1.35137162951,-1.92847006043
6.66045315648,2.26474824323,-1.19187580114,1.12923577412
18.7620739677,3.66244512224,-1.86237997276,3.67694160868
7.3836947789,2.76014200124,-1.64288414439,1.63464744323
0.935315590101,2.55783888025,-0.453388316017,2.06235327778
5.96693640131,1.70553575925,-0.393892487642,1.74005911234
2.86855721251,-0.116767361742,-1.75439665927,-1.21223505311
4.14017802372,0.810929517265,-1.4149008309,-0.184529218554
-1.62820116507,-3.01137360373,-1.70540500252,-4.056823384
-3.42658035387,-3.55367672472,-1.19590917415,-4.63911754945
-7.16495954266,-1.91597984571,-0.576413345773,-1.73141171489
-4.02333873145,-1.35828296671,-3.9869175174,-2.74370588034
-3.22171792025,2.22941391229,-2.17742168903,-1.94600004578
-2.31009710904,0.747110791301,-1.41792586065,-2.88829421123
-3.34847629783,-2.2051923297,-1.57843003228,-5.95058837667
-10.3668554866,-1.09749545069,-0.548934203904,-7.74288254212
-1.79523467542,1.02020142831,0.0705616244704,-1.59517670757
-3.32361386421,3.02789830732,0.270057452845,0.742529126988
-7.35199305301,2.54559518633,0.699553281219,-0.489765038459
-7.8903722418,2.87329206533,-0.620950890408,1.8179407961
-10.8287514306,3.45098894434,0.208544937967,0.46564663065
-7.13713061938,0.398685823344,-0.581959233659,-2.2766475348
-11.1455098082,-2.51361729765,-2.47246340529,-3.75894170024
-0.893888996972,1.08407958136,-0.492967576912,-0.831235865688
-10.8322681858,2.10177646036,1.54652825146,0.306469968866
-6.45064737456,1.86947333936,1.43602407984,0.944175803421
-10.1890265634,3.31717021837,0.645519908211,1.55188163797
-11.1074057521,9.32486709738,2.37501573658,7.57958747253
7.72421505906,11.5125639764,4.33451156496,12.1172933071
-5.44416412973,5.26026085539,1.61400739333,6.52499914164
-1.45254331852,9.0379577344,3.66350322171,9.42270497619
1.79907749268,11.3956546134,2.88299905008,13.7204108107
8.97069830389,11.4833514924,0.982494878454,11.0281166453
-1.60768088491,8.99104837141,0.0219907068276,8.16582247985
-7.2660600737,4.84874525042,2.8314865352,5.23352831441
0.865560737508,12.9564421294,6.28098236358,8.14123414896
0.547181548714,16.6141390084,7.28047819195,15.1089399835
3.12880235992,5.66183588743,0.909974020324,6.61664581807
2.68042317113,0.749532766436,-1.6105301513,1.29435165262
4.55204398233,-0.372770354559,2.02896567707,6.94205748718
4.92366479354,1.09492652445,0.578461505446,8.40976332173
-3.41471439525,1.80262340346,0.487957333819,4.60746915629
-5.10309358405,1.62032028246,3.12745316219,2.44517499084
-2.76147277284,0.878017161467,2.47694899057,-0.267119174605
-4.59985196163,-3.51428595953,0.706444818942,-1.35941334005
-6.52823115043,-1.99658908052,1.86594064732,0.238292494505
-1.14661033922,1.70110779848,0.145436475689,0.0859983290575
-0.774989528014,-0.291195322512,-2.11506769594,0.863704163612
0.716631283194,0.306501556493,1.73442813244,1.10140999817
-8.7917479056,0.144198435497,3.58392396081,-0.80088416728
-1.42012709439,4.54189531451,3.92341978919,5.47682166727
-4.54850628318,3.96959219351,5.24291561756,3.24452750183
-9.62688547198,3.84728907252,5.10241144593,1.02223333638
-4.02526466077,3.06498595152,2.67190727431,0.509939170937
-6.60364384956,2.87268283053,5.17140310268,-0.81235499451
-6.27202303836,3.05037970953,5.37089893106,0.835350840045
-1.88040222715,2.21807658854,4.95039475943,-0.1269433254
-6.63878141595,3.66577346754,4.2098905878,2.78076250915
-7.11716060474,3.47347034655,3.04938641618,0.648468343708
-1.17553979353,-1.24883277445,1.52888224455,-1.31382582174
1.04608101767,1.60886410456,2.06837807293,1.96388001282
-2.53229817112,-0.70343901643,4.3678739013,3.06158584737
-2.52067735991,1.57425786257,4.67736972967,-0.680708318077
-8.35905654871,1.36195474158,5.50686555805,0.616997516478
-10.4674357375,-0.750348379417,3.04636138642,2.13470335103
3.99418507371,-2.14265150041,1.05585721479,1.03240918559
9.79580588491,0.205045378596,3.44535304317,2.01011502014
3.93742669612,-0.0272577424003,3.53484887154,2.1478208547
5.31904750733,-3.27956086339,-0.0656553000836,0.645526689248
10.7006683185,-5.36186398439,-1.11615947171,-1.1867674762
1.32228912974,-2.15416710538,3.02333635666,1.00093835836
-2.88609005906,-4.61647022637,1.45283218504,-3.68135580709
-8.29446924784,-1.60877334737,0.622328013413,-2.67364997253
-4.01284843664,-1.10107646836,4.13182384179,-0.0159441379801
-2.72122762543,-0.683379589358,4.76131967016,1.52176169657
4.40039318577,0.654317289645,2.95081549854,2.38946753113
1.80201399698,0.89201416865,3.62031132691,2.49717336568
3.94363480819,-3.70028895234,2.11980715528,0.914879200236
-7.50474438061,-1.87259207334,3.32930298366,2.78258503479
4.2668764306,-4.02489519433,0.398798812031,1.75029086934
8.4384972418,-2.33719831532,-1.34170535959,3.5379967039
4.48011805302,-3.81950143632,0.617790468778,1.83570253845
8.14173886422,-2.50180455731,0.737286297152,0.203408373007
4.42335967543,-1.25410767831,1.15678212553,2.28111420756
-0.215019513365,-2.1164107993,-0.343722046099,1.31882004212
2.88660129784,0.161286079703,-1.45422621773,3.68652587667
1.24822210905,-3.56101704129,-3.33473038935,-0.885768288776
3.83984292025,-4.44332016229,-3.78523456098,-4.47806245422
0.84146373146,-1.60562328328,-2.8657387326,-1.80035661967
3.11308454267,-5.34792640428,-3.98624290423,-3.73265078511
7.84470535387,-4.48022952527,-4.81674707586,-2.65494495056
9.82632616508,-7.82253264626,-5.48725124748,-3.757239116
-4.64205302372,-8.13483576726,-8.03775541911,-6.07953328145
-2.43043221251,-4.03713888825,-5.48825959073,-4.1818274469
8.9811885987,-5.80944200925,-4.25876376236,-3.31412161234
-2.69719059009,-10.3917451302,-5.88926793399,-9.75641577779
-7.57556977889,-6.13404825124,-5.23977210561,-10.8787099432
-2.43394896768,-2.58635137223,-4.82027627724,-6.50100410868
-4.54232815647,-0.848654493228,-3.05078044886,-4.47329827413
-0.500707345269,-2.76095761422,-4.64128462049,-5.99559243957
0.85091346594,-5.49326073521,-4.68178879212,-8.38788660502
8.78253427715,-3.55556385621,-5.29229296374,-7.88018077046
-3.02584491165,-5.8878669772,-6.16279713537,-7.14247493591
-5.46422410044,-3.8601700982,-3.14330130699,-4.86476910136
1.89739671077,-0.0824732191904,0.00619452137926,-2.4570632668
2.60901752197,-1.21477634019,-2.00430965025,-2.98935743225
-2.77936166682,-1.66707946118,-4.01481382187,-3.78165159769
0.632259144386,4.54061741782,1.3246820065,0.71605423686
3.10387995559,5.29831429683,2.17417783488,3.10376007142
2.3455007668,2.80601117584,0.163673663249,0.37146590597
8.147121578,6.95370805484,1.39316949162,4.74917174052
10.3287423892,6.41140493385,1.01266532,4.54687757508
-7.26963679958,8.95910181285,1.27216114837,5.30458340963
7.66198401163,12.0067986919,3.15165697674,8.00228924418
-3.35013444766,-1.56159156976,9.88185683139,-4.06105741279
-6.6558336099,-0.890817243853,7.99990583799,-2.9082344122
-6.47153277215,0.509957082049,4.54795484458,-3.0654114116
-8.44723193439,-2.15926859205,5.01600385117,-4.09258841101
-2.16293109663,-4.64849426615,5.36405285776,-2.39976541041
-10.4286302589,-8.27771994025,4.35210186436,-5.75694240982
-7.07432942111,-4.35694561435,5.86015087095,-4.88411940922
-1.51002858335,-4.44617128844,5.64819987754,-4.46129640863
-3.4557277456,-4.70539696254,4.32624888413,-3.00847340803
-7.99142690784,-3.41462263664,3.58429789072,-3.41565040744
-6.73712607008,-2.75384831074,5.56234689732,-1.41282740684
-5.84282523232,-6.85307398484,3.59039590391,-4.76000440625
-17.5985243946,-3.21229965894,5.0584449105,-1.38718140565
-9.8842235568,-0.271525333035,5.87649391709,-0.254358405056
-7.89992271904,-4.43075100713,5.68454292368,-4.48153540446
-14.4856218813,-8.97997668123,4.33259193028,-9.37871240386
-19.7213210435,-10.0192023553,-0.69935906313,-10.8058894033
-18.9170202058,-8.16842802942,-0.531310056539,-6.94306640268
-19.782719368,-4.19765370352,-1.38326104995,-2.50024340208
-9.40841853025,-1.07687937762,0.324787956646,3.48257959851
-16.1141176925,-9.46610505172,2.06283696324,-6.35459740089
-6.72981685474,-10.0253307258,-1.33911403017,-6.26177440029
-2.21551601698,-13.7045563999,-1.26106502358,-3.9589513997
-4.60121517922,-12.573782074,-4.46301601699,-10.1161283991
-6.36691434146,-4.24300774811,-4.94496701039,-5.42330539851
3.3273864963,-6.68223342221,-5.6869180038,-2.23048239791
2.37168733406,-2.65145909631,-2.47886899721,-0.177659397319
5.63598817181,-1.42068477041,-2.62081999062,-0.734836396723
-5.46971099043,-1.69991044451,-3.92277098402,-1.45201339613
-8.97541015267,-2.84913611861,-4.40472197743,-0.789190395533
-5.27110931491,-2.38836179271,-2.26667297084,-0.136367394938
-1.37680847715,-1.8575874668,-1.43862396425,2.07645560566
-6.18250763939,-3.7868131409,-4.56057495766,-0.930721393748
-2.58820680164,1.703961185,-1.90252595106,0.592101606848
8.18609403612,-1.0552644891,-2.65447694447,-1.39507539256
-1.48960512612,-0.0344901631943,-3.97642793788,-2.65225239196
-4.43530428836,0.336284162709,-2.88837893129,1.10057060863
-0.991003450599,3.26705848861,-0.130329924695,3.55339360923
5.51329738716,3.11783281451,-1.2722809181,3.66621660982
11.1475982249,3.39860714041,-0.294231911509,5.02903961042
0.191899062673,2.69938146631,-0.776182904917,3.19186261101
-1.14380009957,6.47015579222,1.87186610167,6.83468561161
9.47050073819,5.55093011812,1.75991510827,3.83750861221
13.9148015759,7.22170444402,0.0479641148595,6.5603316128
2.73910241371,4.82247876992,-0.493986878549,5.61315461339
6.45340325146,5.66325309582,-1.26593787196,5.05597761399
7.66770408922,8.71402742172,0.402111134636,6.97880061458
9.45200492698,2.42480174762,-2.65983985877,5.36162361518
8.86630576474,-0.0144239264737,-4.59179085218,5.62444661578
8.8706066025,-0.623649600569,-3.26374184559,4.57726961637
15.2849074403,0.527124725329,-2.08569283899,4.86009261697
11.219208278,-3.19210094877,-4.1676438324,0.14291561756
8.71350911578,-2.64132662286,-5.22959482581,1.37573861816
3.95780995353,-1.10055229696,-3.18154581922,-0.151438381248
10.5521107913,0.700222028936,-1.64349681263,2.13138461935
10.8864116291,-0.759003645162,-2.32544780603,2.48420761994
4.47071246681,-0.348229319261,-2.59739879944,2.03703062054
16.3450133046,1.61254500664,-2.44934979285,1.66985362113
11.4893141423,2.85331933255,-1.92130078626,0.682676621727
5.01361498009,1.57409365845,0.636748220335,1.26549962232
15.9679158178,-1.22513201565,1.32479722693,1.34832262292
1.8222166556,-0.094357689748,-0.787153766481,1.82114562351
2.77651749336,0.956416636149,-2.39910475989,0.0539686241082
7.61081833112,4.60719096205,-3.7510557533,5.1467916247
7.78511916888,4.59796528795,-4.6330067467,4.7396146253
14.1794200066,6.19873961386,-1.17495774011,5.20243762589
10.6237208444,6.81951393976,-2.00690873352,5.71526062649
11.8080216822,7.42028826566,-2.32885972693,6.94808362708
14.2023225199,8.33106259156,-2.78081072034,6.25090662768
8.88662335767,4.29183691747,-2.81276171374,4.39372962827
11.3509241954,9.83261124336,-1.43471270715,5.59655262887
6.92522503318,9.02338556926,-4.05666370056,5.25937562946
21.0495258709,10.5341598952,-4.68861469397,7.83219863006
20.8438267087,12.5149342211,-2.38056568737,9.81502163065
2.80812754646,9.62570854697,-3.12251668078,5.02784463125
19.2224283842,9.36648287288,-5.00446767419,3.46066763185
12.846729222,11.9572571988,-6.6264186676,7.90349063244
22.5910300597,14.1380315247,-4.79836966101,9.35631363304
24.2753308975,16.6088058506,-3.78032065441,10.6091366336
12.9596317353,10.9095801765,-3.96227164782,5.10195963422
6.81393257302,9.40035450238,-3.14422264123,3.78478263482
7.08823341077,11.1811288283,-1.49617363464,5.14760563542
1.99253424853,7.95190315419,-0.968124628044,-2.20957136399
10.4168350863,13.5826774801,-0.960075621451,1.54325163661
8.83113592405,5.21345180599,-2.10202661486,0.126074637203
-5.1645632382,4.24422613189,-1.33397760827,-3.4511023622
5.83973759957,10.6250004578,0.384071398325,2.02172063839
11.6940384373,9.23577478369,1.89212040492,1.89454363899
6.48833927508,6.1165491096,-0.619830588491,0.0573666395831
-19.2573598872,5.5573234355,-3.1017815819,-0.659810359823
-1.3130590494,2.9780977614,-1.61373257531,-1.04698735923
0.901241788357,2.8188720873,-2.06568356871,-0.984164358631
2.42554262612,7.0496464132,0.00236543787832,4.69865864196
1.03984346387,2.86042073911,0.84041444447,-1.60851835744
-2.08585569837,5.63119506501,2.52846345106,2.32430464315
0.65844513939,5.71196939091,1.69651245765,4.61712764375
-8.77725402285,1.63274371681,1.17456146425,-1.64004935566
-3.61295318509,5.58351804271,1.35261047084,0.79277364494
4.53134765267,10.1642923686,2.08065947743,4.45559664553
4.17564849043,7.35506669452,2.13870848402,2.59841964613
-8.34005067182,4.51584102042,1.72675749062,0.721242646725
-11.7457498341,5.32661534632,4.89480649721,0.47406564732
-3.0214489963,5.88738967222,4.3928555038,-0.763111352084
-7.95714815854,4.01816399812,3.42090451039,0.039711648511
-12.3628473208,2.78893832402,4.88895351699,0.172534649106
0.981453516975,0.829712649924,2.98700252358,1.8253576497
15.7357543547,1.05048697583,3.15505153017,2.4481806503
-12.4299448075,-3.53873869827,2.67310053676,-4.95899634911
-11.8656439698,-8.53796437237,-1.12885045665,-8.59617334851
-14.621343132,-6.68719004646,0.789198549946,-6.07335034792
-6.14704229423,-8.54641572056,0.0872475565384,-5.43052734732
-6.95274145647,-8.75564139466,-0.17470343687,-5.56770434673
-3.70844061871,-10.0848670688,-0.696654430277,-5.21488134613
-7.79413978096,-2.40409274286,-0.788605423685,0.957941654462
-6.8398389432,-3.68331841696,2.23944358291,0.550764655058
-3.27553810544,-6.35254409106,2.1274925895,-3.31641234435
-4.87123726768,-4.23176976516,4.03554159609,-1.46358934375
-2.51693642992,-4.09099543925,6.19359060268,-0.100766343156
-4.89263559216,-4.34022111335,5.58163960928,0.00205665743852
-3.09833475441,-7.96944678745,4.52968861587,-2.14512034197
-10.1840339166,-9.64867246155,3.73773762246,-2.21229734137
-14.4297330789,-10.1478981356,4.66578662905,-4.24947434078
-13.4654322411,-10.4671238097,2.62383563565,-5.05665134018
-12.4411314034,-13.2463494838,0.921884642237,-6.60382833958
-13.8268305656,-16.0055751579,2.87993364883,-6.56100533899
-11.5625297279,-24.014800832,1.37798265542,-13.3781823384
-12.5482288901,-24.5840265061,-0.513968337987,-12.8253593378
-19.0039280523,-24.0132521802,-2.12591933139,-13.7625363372
-25.20609375,-10.4171693314,4.99659520349,-14.2937681686
-15.6690612697,-11.1996425506,5.67691457036,-14.4951064652
-13.9620287894,-7.89211576977,5.76723393724,-12.6864447617
-6.86499630905,-2.92458898896,8.32755330411,-5.23778305828
-11.2479638287,1.50293779185,11.287872671,-1.95912135484
-8.60093134842,-2.91953542734,6.92819203786,-7.23045965139
-0.183898868101,-4.98200864654,4.50851140473,-2.74179794795
1.68313361222,-8.57448186573,4.33883077161,-1.80313624451
-19.2398339075,-2.80695508492,6.20915013848,-3.05447454107
-5.17280142715,-0.969428304106,5.39946950536,-2.69581283762
-0.955768946842,2.0480984767,5.09978887223,0.892848865818
0.491263533473,3.27562525751,4.3601082391,1.90151056926
0.548296013789,1.20315203832,4.49042760598,-0.339827727295
-8.2446715059,4.98067881913,3.25074697285,0.578833976148
-2.84763902558,6.49820559994,4.61106633973,4.62749567959
-7.61060654527,6.22573238075,5.4013857066,3.41615738303
1.58642593505,1.22325916156,2.85170507348,3.14481908648
-14.1765415846,-6.32921405763,0.652024440349,-6.71651921008
-6.56950910432,-5.41168727682,2.28234380722,-2.77785750664
-2.80247662401,-6.52416049601,0.442663174098,-5.4391958032
-2.58544414369,-3.91663371521,-2.00701745903,-2.13053409976
9.41158833662,-2.7891069344,0.583301907846,2.08812760369
-5.66137918306,-2.03158015359,0.77362127472,-3.09321069287
-5.53434670275,-2.61405337278,-1.3260593584,-1.22454898943
-0.517314222434,-1.42652659197,-3.03573999153,0.454112714015
2.62971825788,0.181000188841,-1.18542062466,-0.417225582542
0.0467507381982,-0.461473030347,0.214898742218,-0.268563879099
-0.0762167814864,1.50605375046,-1.64478189091,0.250097824344
4.65081569883,-1.44641946873,-1.96446252403,0.268759527786
6.18784817914,2.60110731208,0.68585684284,2.43742123123
18.2248806595,4.72863409289,0.226176209714,1.56608293467
6.86191313977,3.3161608737,-1.38350442341,2.30474463812
4.32894562008,3.3036876545,-0.723185056538,6.43340634156
7.4959781004,4.86121443531,-0.882865689663,5.942068045
6.97301058072,3.63874121612,-1.34254632279,5.42072974844
7.01004306103,6.47626799694,-2.80222695592,7.38939145188
16.0270755413,3.95379477774,-5.62190758904,5.24805315533
14.6141080217,4.02132155855,-3.73158822217,7.09671485877
10.911140502,2.47884833936,-0.811268855293,3.49537656221
9.00817298229,2.45637512017,-1.71094948842,1.57403826565
8.21520546261,-1.00609809902,-3.70063012154,2.4026999691
6.17223794292,2.23142868179,-1.16031075467,3.81136167254
-7.94072957676,0.448955462602,-3.0499913878,0.100023375984
5.17630290355,3.73648224341,-2.75967202092,7.60868507943
14.6133353839,2.88400902422,-1.75935265405,9.32734678287
5.62036786418,4.50153580503,-2.05903328717,7.98600848631
5.76740034449,4.56906258584,-2.4287139203,5.63467018975
2.74443282481,7.60658936665,-1.33839455342,8.3333318932
1.37146530512,7.00411614745,-1.49807518655,7.13199359664
21.2084977854,7.21164292827,-2.71775581968,7.04065530008
11.9755302658,7.06916970907,-4.4174364528,4.84931700353
-2.87743725393,7.85669648989,-3.90711708593,3.59797870697
-5.23040477362,3.81422327069,-3.20679771905,1.28664041041
9.2166277067,-1.4882499485,-5.57647835218,-1.70469788615
-2.32633981299,-0.660723167686,-5.27615898531,-3.42603618271
0.39069266733,2.89680361312,-3.69583961843,0.322625520739
1.72772514764,5.65433039393,-2.76552025156,6.13128722418
0.574757627961,3.88185717474,-2.36520088468,5.41994892762
14.8717901083,1.87938395555,-2.48488151781,2.99861063106
2.56882258859,5.02691073636,-0.364562150934,1.09727233451
-6.2441449311,3.44443751717,-0.75424278406,0.785934037951
-0.0371124507838,-0.958035702024,-2.23392341718,-1.80540425861
-5.48007997047,-1.50050892121,-0.903604050312,-3.14674255516
-3.56304749015,-4.1329821404,-3.77328468344,-1.33808085172
-2.94601500984,-4.64545535959,-5.63296531656,-4.39941914828
-4.94898252952,-2.11792857879,-7.38264594969,-0.690757444836
-0.281950049208,-2.18040179798,-5.84232658281,0.267904258608
6.59508243111,-4.59287501717,-5.07200721594,1.51656596205
8.64211491142,-7.81534823636,-6.69168784907,1.38522766549
-3.21085260826,-7.56782145555,-8.14136848219,-4.18611063106
-2.80382012795,-3.54029467474,-6.61104911532,-4.07744892762
-7.34678764764,-4.01276789393,-5.77072974844,-4.47878722418
-3.39975516732,-2.55524111312,-3.85041038157,-3.97012552074
-5.28272268701,-1.39771433231,-3.9500910147,-0.791463817295
-4.55569020669,2.13981244849,-0.59977164782,0.747197886149
9.58134227362,2.58733922931,-1.14945228095,0.565859589591
2.10837475394,4.71486601012,-1.59913291407,2.73452129303
17.4154072343,4.11239279092,-3.1688135472,4.90318299648
5.17243971457,-0.410080428264,-3.84849418032,0.991844699918
6.86947219489,-2.48255364746,-4.74817481345,-3.79949359664
4.9765046752,-4.67502686665,-6.04785544658,-4.8908318932
-5.08646284449,-1.80750008584,-1.9275360797,-2.23217018975
6.97056963583,-3.61997330503,-1.07721671283,-3.84350848631
5.91760211614,-4.26244652422,-1.80689734595,-1.70484678287
0.76463459646,-5.69491974341,-3.46657797908,-4.96618507943
2.43166707677,-1.4673929626,-1.5462586122,-6.17752337598
-0.971300442914,-0.239866181793,0.27406075467,-2.01886167254
3.8457320374,-1.44233940098,1.43438012154,-0.410199969097
10.7227645177,-4.35481262017,-1.43530051158,-1.97153826566
-3.97020300197,0.272714160637,-0.0149811447072,-0.612876562212
0.866829478349,-1.28975905855,-1.40466177783,0.325785141231
-1.93613804134,-3.65223227775,-2.50434241096,-1.59555315533
-6.31910556102,-7.98470549694,-2.20402304409,-6.96689145188
3.61792691929,-7.91717871612,-2.81370367721,-3.81822974844
5.28495939961,-6.23965193532,-2.70338431034,-3.839568045
-0.648008120079,-3.83212515451,-2.24306494346,-1.54090634156
5.21902436024,1.2054016263,0.457254423412,1.81775536189
4.15605684055,-0.497071592887,0.497573790286,4.38641706533
13.3330893209,0.96045518792,3.29789315716,7.46507876877
-10.1198781988,8.55798196873,3.24821252403,5.38374047221
-7.0628457185,16.2255087495,1.56853189091,9.38240217566
4.03418676181,13.5030355303,4.06885125778,11.1110638791
-10.0787807579,4.61056231116,1.52917062466,1.93972558254
2.13825172244,6.39808909197,2.07948999153,2.89838728599
-6.31471579724,4.47561587278,1.02980935841,1.80704898943
2.21231668307,8.49314265358,3.52012872528,6.63571069287
8.90934916338,9.2806694344,3.32044809215,6.22437239631
-7.1936183563,5.8681962152,4.74076745903,1.82303409975
-10.556585876,2.46572299601,4.1110868259,-3.0483041968
-12.4895533957,-0.166750223176,2.56140619278,-7.22964249336
-7.46252091535,0.630776557635,3.31172555965,-4.59098078992
-14.915488435,-3.85169666156,4.78204492653,-5.87231908647
-16.5384559547,-10.1341698808,4.2623642934,-7.84365738303
3.50857652559,-8.16664309994,3.56268366027,-2.52499567959
-8.3043909941,-5.74911631913,0.983003027148,-4.80633397615
-10.6373585138,-5.26158953832,1.11332239402,-6.7876722727
-3.22032603346,-5.05406275751,2.8236417609,-5.11901056926
1.12670644685,-5.3865359767,3.35396112777,-5.79034886582
1.89373892717,-2.41900919589,2.58428049464,-1.41168716238
3.16077140748,0.468517584915,1.95459986152,3.79697454107
-10.4321961122,-4.65395563428,0.0949192283924,-2.55436375549
-2.86516363189,-1.67642885347,3.39523859527,-0.165702052049
13.5318688484,1.36109792734,4.03555796214,4.4829596514
-5.52109867126,-1.36137529185,2.95587732902,-1.32837864516
-2.89406619095,3.06615148897,4.60619669589,2.18028305828
5.34296628937,2.44367826977,5.30651606276,0.478944761722
-1.70000123032,-3.20879494942,5.41683542964,-4.50239353483
-11.81296875,-1.27126816861,7.97715479651,-1.06373183139
19.2355377907,17.5705922965,-4.20029069768,23.1749709302
15.2291353747,17.1984016206,-7.29617686779,22.2288874805
9.80273295871,10.8962109447,-8.72206303791,15.5628040309
9.41633054271,7.61402026873,-9.13794920802,12.4867205812
4.13992812672,7.2118295928,-7.85383537814,13.5306371315
9.74352571072,6.69963891687,-8.37972154825,13.8545536818
6.23712329473,7.83744824094,-9.43560771837,13.0684702321
11.9507208787,8.66525756502,-6.32149388848,13.3923867824
8.68431846274,7.15306688908,-6.4473800586,14.7463033327
18.0679160467,7.67087621315,-6.12326622871,16.750219883
28.4815136307,13.9686855372,-2.99915239883,19.5841364333
4.63511121475,14.4164948613,-4.78503856895,14.5680529837
17.5687087988,12.6343041854,-4.64092473906,13.171969534
12.1823063828,10.2021135094,-4.71681090918,12.7558860843
10.4559039668,4.05992283351,-3.00269707929,7.69980263459
9.02950155077,7.34773215758,-0.598583249407,6.9937191849
13.6230991348,11.6155414816,0.305530580478,10.3376357352
5.26669671878,11.6133508057,-2.30035558964,9.39155228552
15.1202943028,13.5611601298,-2.53624175975,11.4654688358
6.37389188679,6.45896945386,-5.07212792987,6.95938538614
8.02748947079,5.38677877793,-4.90801409998,5.00330193645
-0.178912945205,3.464588102,-3.4439002701,0.887218486767
-9.5853153612,0.872397426072,-4.50978644021,-0.668864962921
-9.57171777719,-2.22979324985,-1.70567261033,-0.544948412611
8.26187980681,-2.76198392579,-0.391558780445,1.8389681377
-4.05452260918,-1.57417460172,-2.84744495056,-1.94711531199
1.92907497482,-6.64636527765,-4.80333112068,-2.26319876168
-12.0173274412,-6.93855595358,-4.20921729079,-4.57928221137
-10.1637298572,-7.72074662951,-4.53510346091,-3.55536566105
-5.63013227316,-8.87293730544,-1.62098963102,-7.72144911074
-3.64653468916,-10.1251279814,0.943124198863,-6.97753256043
-9.90293710516,-7.57731865729,3.29723802875,-5.39361601012
2.79066047885,-3.50950933322,3.08135185863,-3.92969945981
-4.83574193715,-4.40170000915,3.43546568852,-4.1457829095
-13.2921443531,-3.43389068508,2.8195795184,-4.57186635919
-11.6885467691,-6.47608136101,1.77369334829,-4.02794980887
-3.28494918513,-4.07827203694,2.96780717817,-4.72403325856
-1.85135160113,-2.71046271287,5.86192100806,-2.41011670825
-10.2577540171,-0.072653388801,6.72603483794,-0.766200157941
3.79584356688,1.62515593527,8.46014866783,-1.55228360763
8.23944115089,1.13296525934,7.79426249771,-0.868367057317
0.0130387348909,0.780774583411,5.99837632759,-0.974450507007
2.1966363189,2.45858390748,5.27249015748,0.0894660433041
-6.8997660971,-2.01360676845,2.26660398736,-3.82661740638
-4.9861685131,-0.245797444375,4.37071781725,-2.49270085607
2.47742907091,-1.26798812031,5.05483164713,-2.27878430576
-3.59897334508,-1.80017879623,4.48894547702,-3.89486775545
-4.05537576108,-2.51236947217,4.8730593069,-6.50095120514
-6.02177817708,-4.3745601481,5.77717313679,-6.84703465483
-12.6381805931,-5.37675082403,5.19128696667,-9.82311810452
-2.96458300907,-7.75894149995,2.89540079656,-12.5192015542
1.07901457494,-9.03113217588,1.04951462644,-9.84528500389
-3.19738784106,-8.60332285181,1.95362845633,-11.7113684536
-6.57379025705,-8.38551352774,1.83774228621,-11.4074519033
14.059807327,-7.50770420367,3.7018561161,-9.71353535296
-19.046595089,-9.7598948796,4.15596994598,-17.5296188026
-17.172997505,-11.1020855555,3.27008377587,-17.2257022523
-14.679399921,-4.15427623146,4.46419760575,-11.781785702
-18.315802337,-5.80646690739,5.12831143563,-11.4278691517
-16.492204753,-11.7886575833,4.40242526552,-17.9439526014
-11.548607169,-11.7008482593,4.9265390954,-15.1600360511
-20.565009585,-11.3830389352,3.73065292529,-13.3361195008
-14.061412001,-13.6152296111,1.95476675517,-17.6122029505
-0.367814417004,-12.207420287,2.96888058506,-14.9382864002
-6.114216833,-11.869610963,5.25299441494,-14.7243698498
-15.340619249,-12.2218016389,4.70710824483,-15.5404532995
-19.347021665,-11.2839923148,3.89122207471,-17.1065367492
-17.893424081,-3.99618299076,5.1053359046,-13.3226201989
-10.789826497,-7.83837366669,5.27944973448,-17.5987036486
-18.706228913,-12.0805643426,2.09356356437,-20.2047870983
-12.722631329,-7.05275501855,2.30767739425,-14.550870548
-7.02903374497,-6.42494569447,4.21179122413,-11.1869539977
-11.095436161,-3.9371363704,5.43590505402,-6.59303744736
-5.53183857696,-2.99932704633,8.5700188839,-7.84912089704
-19.078240993,-9.08151772226,7.44413271379,-15.0152043467
-9.33464340895,-6.75370839819,6.59824654367,-12.9912877964
-3.46104582494,-0.315899074121,7.73236037356,-6.67737124611
-13.7274482409,-3.74808975005,6.75647420344,-9.8534546958
-0.473850656937,-2.81028042598,5.52058803333,-4.04953814549
-5.17025307293,-2.36247110191,5.01470186321,-2.85562159517
-7.16665548893,-6.27466177784,4.7588156931,-5.79170504487
-7.14305790492,-4.07685245377,4.63292952298,-6.64778849455
-3.34946032092,-3.6990431297,3.67704335287,-5.34387194424
-3.86586273691,-5.80123380563,3.53115718275,-7.31995539393
-4.44226515291,-4.23342448155,4.55527101264,-6.07603884362
2.5513324311,-4.58561515748,3.17938484252,-2.97212229331
-4.0050699849,1.40219416659,3.83349867241,0.101794257005
-1.86147240089,-1.98999650935,1.11761250229,-2.30428919268
0.992125183111,-5.58218718527,-1.01827366783,-6.02037264237
-5.06427723288,-9.34437786121,-1.60415983794,-10.1664560921
-8.31067964888,-10.1165685371,-0.660046008055,-7.82253954175
3.53291793512,-9.42875921306,-2.70593217817,-7.67862299144
3.88651551913,-7.10094988899,-2.60181834829,-6.90470644113
-3.46988689687,-4.43314056492,1.5222954816,-3.11078989082
1.58371068714,-0.0953312408528,3.24640931148,0.0231266594947
0.757308271142,1.40247808322,-0.339476858632,3.43704320981
3.23090585515,1.72028740729,-0.375363028747,3.47095976012
8.30450343915,0.198096731358,0.438750801137,-0.785123689569
7.60810102316,-0.94409394457,-0.617135368978,-0.451207139258
9.06169860716,-1.0262846205,-1.52302153909,2.51270941105
9.45529619117,3.33152470357,0.881092290791,4.79662596136
-6.73110622483,-4.53066597236,-0.294793879324,-0.929457488326
0.952491359174,-2.54285664829,1.11931995056,1.65445906199
0.416088943181,-2.85504732422,-0.906566219555,2.8483756123
1.01968652719,-4.32723800015,-2.05245238967,0.652292162609
9.13328411119,-0.479428676073,-2.12833855979,4.53620871292
-0.443118304804,3.54838064799,-3.5742247299,3.05012526323
9.3704792792,8.21618997206,-2.18011090002,6.05404181354
-7.0159231368,1.83399929613,-5.67599707013,1.03795836385
0.827674447206,6.7718086202,-1.15188324025,5.72187491416
1.76127203121,8.75961794427,-3.44776941036,10.6557914645
11.5248696152,11.1974272683,-5.28365558048,16.7497080148
14.4684671992,14.2452365924,-1.58954175059,21.8836245651
14.2920647832,15.0730459165,-0.505427920708,22.0075411154
18.5156623672,9.73085524056,-4.29131409082,17.0314576657
16.0792599512,7.94866456463,-3.41720026094,13.785374216
10.0128575352,7.2964738887,-4.14308643105,8.76929076635
7.79645511925,5.82428321277,-5.73897260117,8.36320731666
11.3300527032,7.99209253684,-6.53485877128,9.46712386697
15.1936502873,7.34990186091,-6.9707449414,10.2010404173
0.477247871262,7.59771118498,-6.21663111152,9.49495696759
3.85084545526,13.4955205091,-4.91251728163,13.7988735179
8.94444303927,13.1933298331,-5.45840345175,14.2327900682
2.75804062327,11.0411391572,-5.16428962186,11.4767066185
9.14163820728,9.09894848126,-5.24017579198,12.0706231688
8.15523579128,9.66675780533,-7.17606196209,14.7245397191
7.59883337529,10.1145671294,-8.48194813221,12.8584562695
9.13243095929,9.60237645348,-8.08783430232,12.8723728198
21.5920385175,6.09059229652,-7.63745276163,8.7533866279
25.0221146825,8.86910782137,-4.89771802326,13.0024142499
14.0821908476,6.53762334623,-5.59798328488,9.6714418719
9.86226701269,5.06613887109,-5.87824854651,6.08046949391
17.2923431778,5.32465439595,-3.94851380814,8.73949711591
16.5024193429,7.14316992081,-3.48877906977,6.63852473791
2.65249550793,-1.91831455433,-7.7990443314,2.18755235991
9.76257167301,4.80020097052,-1.87930959302,10.1665799819
14.6726478381,3.79871649538,-0.579574854652,7.59560760391
-1.63727599683,2.08723202024,0.210159883721,2.57463522591
-3.48719983175,-1.5242524549,0.719894622092,-3.34633715208
-5.10712366667,0.454263069958,1.08962936046,-3.88730953008
-3.23704750159,0.152778594813,-0.360635901163,-1.89828190808
0.833028663488,4.46129411967,-3.14090116279,3.40074571392
0.263104828566,6.22980964453,-2.57116642442,5.20977333592
1.10318099365,6.50832516939,-0.211431686046,3.82880095792
-2.24674284127,3.63684069425,1.98830305233,0.807828579926
9.58333332381,4.5653562191,3.4980377907,3.24685620193
-5.75659051112,10.853871744,7.10777252907,4.61588382393
9.09348565396,8.96238726882,5.30750726744,5.39491144593
-6.90643818095,6.23090279368,4.64724200581,2.15393906793
2.18363798412,4.82941831854,3.93697674419,3.87296668993
8.1137141492,5.95793384339,0.976711482558,5.24199431193
-1.10620968572,9.45644936825,3.53644622093,4.35102193394
-4.07613352064,9.17496489311,2.6061809593,3.43004955594
5.50394264444,4.22348041797,0.225915697674,1.97907717794
-6.64598119048,8.12199594283,2.06565043605,5.88810479994
10.2340949746,2.63051146768,-2.23461482558,3.20713242194
9.86417113968,3.08902699254,-3.67488008721,4.32616004394
10.3842473048,7.3275425174,-3.15514534884,8.01518766595
12.9443234698,5.25605804226,-2.22541061046,8.26421528795
0.164399634919,0.704573567116,0.934324127907,2.45324290995
-0.735524200001,0.563089091971,0.994058866279,-0.517729468049
9.14455196508,2.34160461683,0.733793604652,4.51129815395
-6.86537186984,1.07012014169,1.30352834302,1.32032577595
0.204704295236,-2.78136433346,0.773263081395,-0.180646602044
-5.35521953968,-4.87284880859,-1.11700218023,-4.78161898004
-0.185143374601,-4.81433328374,-2.93726744186,-6.68259135804
-7.34506720952,-5.94581775888,-3.95753270349,-5.11356373604
-4.36499104444,-5.37730223402,0.642202034885,-3.39453611404
-12.9149148794,-7.93878670916,2.26193677326,-7.37550849204
-3.38483871429,-6.45027118431,2.51167151163,-4.86648087003
-5.52476254921,-1.90175565945,1.85140625,-0.597453248034
1.63531361587,-0.0432401345861,2.11114098837,1.95157437397
-3.56461021905,-2.86472460973,0.980875726745,-1.22939800403
-1.67453405397,-5.96620908487,0.340610465117,-4.49037038203
-17.5344578889,-6.51769356001,2.70034520349,-6.56134276003
-6.88438172381,-4.24917803516,1.95007994186,-5.49231513803
-6.85430555873,-3.3606625103,3.22981468023,-3.65328751602
2.27577060635,-1.63214698544,4.58954941861,-2.31425989402
-13.7241532286,-4.68363146058,3.58928415698,-7.43523227202
-6.42407706349,-5.43511593572,1.76901889535,-9.77620465002
-11.9340008984,-2.47660041087,1.03875363372,-5.48717702802
8.07607526667,0.371915113989,3.17848837209,-2.15814940602
-4.56384856825,1.53043063885,5.77822311047,-5.63912178402
-8.71377240317,-0.831053836297,8.31795784884,-4.93009416201
-9.2636962381,-2.05253831144,5.45769258721,-4.19106654001
-15.273620073,-5.68402278658,1.82742732558,-7.56203891801
-3.21354390794,-3.05550726172,3.17716206395,-6.64301129601
0.106532257145,-3.44699173686,0.956896802327,-7.80398367401
-7.24339157778,-5.588476212,-0.443368459301,-7.53495605201
-3.5433154127,-3.76996068715,0.956366279071,-4.67592843
1.67676075238,-4.49144516229,1.56610101744,-3.516900808
-11.7731630825,-4.12292963743,2.94583575582,-6.057873186
-17.8930869175,-4.45441411257,4.02557049419,-4.968845564
0.586989247622,-5.33589858771,6.00530523256,-6.279817942
-21.0929345873,-10.4473830629,2.10503997093,-12.76079032
-12.5428584222,-14.748867538,0.994774709304,-13.721762698
-4.82278225714,-14.4003520131,-2.03549055232,-11.892735076
-12.1627060921,-11.0418364883,-2.13575581395,-7.71370745399
5.16737007302,-7.94332096342,-2.08602107558,-4.49467983199
-11.0325537619,-10.6648054386,-2.36628633721,-5.85565220999
3.07752240318,-4.97628991371,-0.806551598836,-1.15662458799
-6.65240143174,-4.28777438885,-1.66681686046,-2.13759696598
3.81767473333,-5.70925886399,-1.52708212209,-2.22856934398
2.36775089841,-5.88074333913,3.15265261628,-2.29954172198
-11.6121729365,-5.24222781428,1.42238735465,-5.00051409998
-3.53209677143,-6.15371228942,-0.357877906975,0.36851352202
-7.19202060635,-8.19519676456,-2.8681431686,-1.58245885598
-10.6219444413,-11.7866812397,-4.75840843023,-7.83343123398
-6.26186827619,-10.5881657148,-1.61867369186,-5.86440361197
-14.2717921111,-5.70965018999,0.981061046514,-4.70537598997
0.488284053972,-4.47113466513,1.95079578489,-1.37634836797
-9.54163978095,-10.8926191403,-0.869469476743,-9.28732074597
-13.5315636159,-6.01410361541,-3.29973473837,-5.19829312397
1.49851254921,-1.53558809056,-3.69,-1.88926550197
3.71858871429,-2.7270725657,-1.69026526163,-1.17023787997
-13.4113351206,-5.28855704084,-2.69053052325,-4.70121025796
-9.25125895555,-6.06004151598,-0.780795784882,-6.20218263596
-2.91118279047,-5.40152599112,-0.59106104651,-5.95315501396
-4.23110662539,-2.97301046626,-0.981326308137,-3.38412739196
-2.20103046031,-2.47449494141,0.638408430234,-1.59509976996
-9.08095429523,-3.98597941655,-1.81185683139,-3.42607214795
-8.65087813015,-0.17746389169,-2.22212209302,-1.60704452596
-1.66080196507,-1.61894836683,-2.81238735465,-2.03801690395
2.43927420001,-4.92043284198,-5.51265261628,-1.13898928195
-6.23064963492,-8.30191731712,-4.2929178779,-6.02996165995
-9.03057346984,-8.49340179226,-1.46318313953,-4.42093403795
5.56950269524,-0.3048862674,-0.543448401161,1.42809358405
4.76957886032,3.30362925746,0.606286337212,4.60712120605
1.9696550254,3.09214478232,1.11602107558,7.24614882806
4.33973119048,2.52066030717,-0.104244186045,5.79517645006
6.56980735556,0.91917583203,-3.42450944767,1.72420407206
5.78988352064,-2.04230864311,-4.5147747093,0.523231694062
-6.87004031428,-3.46379311826,-6.28503997093,-3.41774068394
-1.6999641492,0.234722406607,-2.76530523256,-2.40871306194
-2.28988798412,-1.38676206853,-0.545570494183,-3.40968543993
3.12018818096,1.35175345632,-0.825835755812,0.0993421820676
3.94026434604,6.39026898118,-0.0161010174388,2.59836980407
11.7703405111,6.17878450604,-0.536366279067,4.54739742607
7.20041667619,9.1373000309,1.9333684593,6.24642504807
1.70049284128,6.22581555575,-2.57689680232,3.78545267007
-5.79943099365,1.56433108061,-5.35716206395,0.0344802920754
7.29064517144,1.19284660547,-3.80742732558,-0.926492085924
9.24072133651,2.14136213033,-0.727692587207,3.57253553608
-0.629202498407,3.62987765518,2.81204215117,3.99156315808
0.540873666672,9.84839318004,5.12177688954,6.68059078008
9.98094983175,10.5369087049,2.90151162791,8.52961840208
6.68102599683,11.3054242298,1.43124636628,12.4486460241
16.8211021619,14.3339397546,0.370981104654,12.8976736461
12.361178327,11.9524552795,-3.88928415697,10.5667012681
17.1312544921,12.7409708043,-0.439549418601,11.4657288901
11.4113306571,11.8794863292,1.90018531977,13.2347565121
21.2614068222,13.5880018541,1.54992005814,12.2237841341
23.3214829873,13.1065173789,1.06965479651,10.9928117561
3.06155915239,5.02503290377,3.19938953489,3.0818393781
2.87163531746,8.16354842862,4.17912427326,5.3208670001
9.07171148255,5.11206395348,3.17885901163,2.9798946221
-4.27393168604,0.626733284887,3.67504723837,-3.80053415698
-8.50829521264,3.6663885678,2.67840156336,-0.0200274675008
3.04734126076,8.05604385072,8.09175588834,5.21047922198
-7.44702226583,0.325699133635,3.17511021333,-3.04901408854
-5.82138579243,0.325354416549,3.06846453831,-3.19850739906
3.22425068097,-0.404990300536,3.6618188633,-0.358000709581
4.35988715437,-0.445335017623,2.27517318829,-0.3574940201
2.11552362777,-0.175679734708,3.15852751327,0.50301266938
2.67116010118,-2.80602445179,2.02188183826,-0.11648064114
8.92679657458,2.67363083113,0.465236163246,2.61402604834
2.46243304798,-0.876713885958,2.45859048823,-0.575467262181
2.78806952139,1.47294139696,1.90194481322,1.7450394273
4.23370599479,1.87259667987,0.855299138205,4.63554611678
11.6293424682,1.23225196279,0.968653463191,3.63605280626
4.82497894159,2.8019072457,0.662007788178,3.84655949574
11.730615415,1.68156252861,-0.444637886836,1.63706618522
2.06625188839,3.97121781153,0.388716438149,0.4175728747
-4.1781116382,3.59087309445,2.80207076314,-0.901920435821
-5.6824751648,2.43052837736,4.77542508812,-1.74141374634
4.3931613086,6.73018366027,3.86877941311,3.08909294314
4.048797782,6.17983894319,3.85213373809,4.47959963262
-9.49556574459,2.70949422611,3.13548806308,0.910106322101
6.48007072881,1.14914950902,3.11884238807,-1.22938698842
3.74570720221,-0.941195208066,0.132196713053,-3.23888029894
-6.13865632438,-0.541539925151,-2.77444896196,-3.96837360946
-6.59301985099,-2.59188464223,-3.14109463697,-5.30786691998
-3.69738337758,0.407770640682,-0.457740311987,-1.1873602305
-10.6517469042,-0.842574076403,3.705614013,0.0431464589801
-8.93611043078,0.0570812065125,2.94896833799,-1.42634685154
-9.97047395738,1.24673648943,1.45232266297,2.89415983794
-5.79483748397,-1.85360822766,-2.31432301204,-0.235333472581
-2.29920101057,-3.97395294474,-4.10096868706,0.0851732168994
1.71643546283,-7.28429766183,-4.20761436207,-2.85432009362
-2.26792806377,-9.57464237891,-6.27426003708,-4.03381340414
-8.93229159036,-6.314987096,-4.0609057121,-7.81330671466
0.313344883038,-4.20533181308,0.57244861289,-6.48280002518
0.48898135644,-7.13567653017,-3.46419706212,-7.8422933357
-6.77538217016,-6.16602124725,-3.51084273714,-8.33178664622
-5.39974569676,-8.73636596434,-3.50748841215,-9.37127995674
-0.374109223354,-7.14671068142,-4.28413408717,-6.11077326726
-14.2384727499,-4.23705539851,-3.56077976218,-6.32026657778
-10.0928362765,-2.90740011559,-4.08742543719,-5.4697598883
3.60280019685,-3.39774483267,-2.23407111221,-0.679253198819
3.99843667026,-4.51808954976,-1.98071678722,-1.67874650934
-8.38592685634,-5.48843426684,-4.02736246223,-3.52823981986
-11.0102903829,-7.56877898393,-5.86400813725,-5.62773313038
2.23534609046,-5.12912370102,-4.98065381226,-3.0272264409
-2.01901743613,-4.2094684181,-3.76729948727,-3.20671975142
-2.73338096273,-5.89981313518,-4.63394516229,-3.89621306194
-6.15774448933,-6.17015785227,-5.2605908373,-4.75570637246
-1.18210801593,-5.94050256936,-5.36723651232,-5.62519968298
-0.626471542528,-6.23084728644,-3.55388218733,-5.6646929935
0.459164930875,-7.23119200352,-2.89052786234,-6.93418630402
-7.16519859572,-6.75153672061,-1.65717353736,-6.59367961454
4.02043787768,-2.5718814377,-1.25381921237,-2.16317292506
-0.413925648918,-1.61222615478,-1.23046488738,-3.21266623558
-3.60828917552,5.52742912813,2.5128894376,1.1578404539
5.70734729789,0.787084411048,-0.763756237411,1.09834714338
-9.58701622871,-0.393260306035,-1.72040191243,1.20885383286
9.19862024469,2.98639497688,-0.357047587439,3.37936052234
-6.49574328191,3.7760502598,0.226306737548,2.80986721182
6.9698931915,6.79570554271,0.729661062534,6.3703739013
4.1255296649,5.57536082563,2.36301538752,6.35088059078
0.751166138303,6.08501610854,2.65636971251,6.67138728026
6.0868026117,11.4546713915,2.97972403749,9.06189396974
3.44243908511,8.26432667437,2.06307836248,3.75240065922
6.80807555851,6.03398195729,-0.0535673125351,4.2229073487
2.89371203191,5.3036372402,0.649787012452,5.75341403818
-1.97065149469,3.56329252312,2.88314133744,4.25392072766
5.38498497871,2.82294780603,2.93649566242,1.60442741714
19.6606214521,4.68260308895,1.99984998741,6.39493410662
8.65625792552,4.93225837186,0.643204312397,6.6454407961
2.46189439892,1.16191365478,-0.533441362617,5.57594748558
8.97753087232,2.19156893769,2.84991296237,6.15645417506
4.36316734572,4.59122422061,1.13326728736,7.54696086454
5.98880381913,4.55087950352,-2.44337838766,7.71746755402
3.48444029253,2.63053478644,0.219975937328,5.8379742435
-4.87992323407,0.930190069354,1.79333026232,2.08848093298
-0.0642867606657,0.309845352269,1.7966845873,1.17898762246
1.68134971274,1.91950063518,2.23003891229,1.62949431194
0.416986186137,3.8491559181,2.86339323727,6.85000100142
12.8426226595,1.39881120102,-0.46325243774,5.9305076909
3.10825913294,2.40846648393,-0.0998981127541,5.60101438038
2.83389560635,4.90812176684,-0.0765437877681,8.22152106986
4.88953207975,3.57777704976,-0.453189462781,5.63202775934
-6.87483144685,-1.11256766733,-1.4498351378,-0.977465551179
0.320805026553,2.19708761559,-1.22648081281,3.9930411383
-0.743558500046,4.7967428985,-0.953126487822,5.72354782778
11.0520779734,1.71639818142,-3.89977216284,6.01405451726
3.95771444676,1.62605346433,-6.70641783785,6.02456120674
12.7633509202,2.07570874725,-5.96306351286,7.79506789622
10.2289873936,1.09536403016,-3.74970918788,4.6855745857
3.00462386697,0.565019313082,-3.96635486289,2.52608127518
0.830260340368,-0.595325404003,-5.2530005379,3.44658796466
-1.38410318623,1.60432987891,-1.66964621292,4.97709465414
3.28153328717,2.72398516183,-1.51629188793,5.42760134362
1.10716976057,4.96364044474,-1.42293756295,7.9981080331
9.59280623398,4.74329572766,0.0204167620414,9.52861472258
5.75844270738,-2.18704898943,-1.83622891297,-0.0608785879394
-2.98592081922,2.78260629349,-0.802874587987,2.71962810154
-0.280284345819,1.4922615764,-1.109520263,4.36013479102
14.7953521276,2.07191685932,-0.496165938014,2.9106414805
3.39098860099,-1.54842785777,0.807188386972,0.901148169982
-3.97337492561,-0.798772574854,1.34054271196,0.461654859462
-0.707738452209,1.46088270806,1.19389703694,-0.267838451058
-7.44210197881,0.590537990975,0.327251361931,-2.09733176158
-7.8764655054,0.0801932738905,0.0406056869169,-1.8968250721
5.549170968,-5.24015144319,-0.176039988096,-5.57631838262
6.1048074414,-3.38049616028,0.0473143368899,-2.73581169314
7.1504439148,-0.150840877362,2.65066866188,3.68469499634
-6.9839196118,2.23881440555,2.87402298686,1.99520168582
3.51171686161,2.39846968847,2.92737731185,1.4157083753
7.46735333501,-0.591875028618,2.55073163683,-1.99378493522
-1.97701019159,-3.7822197457,0.614085961822,-5.43327824574
-0.101373718189,-4.09256446279,-0.162559713192,-6.36277155626
4.16426275522,-2.86290917987,-0.139205388206,-5.98226486678
-10.2001007714,-3.34325389696,-0.97585106322,-8.7017581773
-9.68446429798,-5.58359861404,-0.102496738233,-10.1312514878
-9.84882782458,-2.84394333113,3.92085758675,-5.56074479834
8.02680864882,-2.35428804821,2.23421191174,-2.56023810886
-6.93755487778,-7.2646327653,-0.422433763274,-10.4497314194
-18.0019184044,-4.96497748238,0.990920561712,-9.8392247299
-4.28628193097,-5.87532219947,1.5742748867,-7.99871804042
-14.8706454576,-4.03566691655,3.41762921169,-8.30821135094
-5.55500898417,-0.966011633638,3.40098353667,-3.80770466146
-4.30937251076,1.69364364928,4.49433786166,-5.25719797198
-8.33373603736,3.55329893219,4.54769218664,-2.6666912825
-5.14809956396,3.15295421511,4.48104651163,-2.43618459302
-2.16466580646,-1.1576748387,5.74500258064,3.11962709677
4.08153384736,3.48148352479,8.79141350118,4.43605592447
-3.20226649883,0.180641888288,5.26782442171,0.402484752163
