-5.76652616278,-30.7714135174,-2.13834665698,7.35143168605
-5.94921251258,-24.2269362868,-1.14592928836,8.04309098036
-6.57189886238,-23.4924590563,-2.51351191975,10.1547502747
3.33541478782,-19.8579818257,-2.54109455114,13.776409569
-2.22727156198,-15.8135045951,0.311322817477,10.6880688633
-4.54995791177,-11.4590273645,0.613740186091,10.8297281576
-1.15264426157,-16.5645501339,-1.45384244529,8.30138745193
4.34466938863,-11.1100729033,-0.27142507668,10.4530467462
0.211983038826,-4.65559567272,0.410992291932,16.1947060406
2.38929668903,0.548881557876,1.61340966055,20.0863653349
11.9766103392,-3.66664121153,1.53582702916,18.6180246292
11.4839239894,4.10783601905,0.858244397776,18.4596839235
3.39123763963,2.58231324964,1.50066176639,14.4213432178
3.01855128983,3.51679048023,0.173079135002,11.2230025121
2.65586494004,4.63126771083,-0.434503496384,11.2246618064
4.80317859023,3.24574494141,-2.45208612777,6.91632110076
-1.53950775956,4.180222172,-3.08966875916,6.40798039507
3.97780589064,6.83469940259,-3.16725139054,10.1596396894
6.88511954084,7.15917663318,-0.874834021928,12.0012989837
1.50243319104,12.6536538638,0.957583346686,16.582958278
6.66974684125,12.5581310944,1.7100007153,13.4946175723
6.55706049145,14.632608325,1.23241808391,12.8062768666
3.78437414164,10.4270855555,1.64483545253,4.15793616096
15.3916877918,13.8215627861,2.66725282114,6.41959545527
7.07900144205,10.6160400167,3.10967018975,13.0412547496
-8.92368490775,4.78051724731,-2.48791244163,-0.837085956098
-17.2163712575,-6.0650055221,-3.43549507302,-17.3754266618
-15.3790576073,-10.1605282915,-2.0130777044,-19.4537673675
-12.8817439571,-10.3660510609,1.21933966421,-22.5621080732
-11.8044303069,-3.08157383033,5.01175703282,-21.6204487788
-9.81711665674,-3.91709659974,4.44417440144,-19.6487894845
-5.60980300654,-5.35261936915,3.76659177005,-22.1471301902
-6.34248935634,-1.98814213856,4.67900913866,-16.4054708959
-0.105175706143,-0.463664907973,2.41142650728,-16.4638116016
-8.55786205594,-7.48918767738,1.69384387589,-20.1521523073
-13.4905484057,-7.6947104468,2.33626124451,-20.400493013
-9.11323475554,0.319766783792,3.16867861312,-16.2788337186
-9.82592110534,-7.08575598562,1.82109598174,-20.7971744243
-8.79860745514,-6.77127875503,2.44351335035,-22.15551513
-10.0912938049,-4.56680152444,3.61593071896,-21.5538558357
-14.9839801547,-2.78232429385,0.868348087575,-21.1721965414
-9.70666650453,-3.32784706326,2.04076545619,-19.8005372471
-9.72935285433,-0.823369832666,5.1631828248,-18.2088779528
-11.1120392041,4.29110739792,6.02560019342,-16.2872186584
-10.5947255539,-0.254415371488,2.50801756203,-15.7955593641
-4.42741190372,4.0800618591,1.14043493064,-12.9939000698
-1.90009825352,3.53453908969,-0.38714770074,-12.1922407755
-4.27278460332,3.54901632028,-0.374730332127,-14.0705814812
-3.05547095312,4.37349355087,-0.562312963515,-13.7689221869
1.83184269708,0.0579707814577,-3.0898955949,-15.3572628926
2.79915634728,-0.707551987951,-2.33747822629,-15.5756035982
-3.74353000252,2.59692524264,1.22493914233,-15.0139443039
-5.78621635232,-0.878597526771,1.95735651094,-14.7222850096
-1.95890270211,7.38587970382,1.98977387956,-7.4606257153
4.36841094809,1.37035693441,-1.27780875183,-9.39896642099
4.35572459829,-1.295165835,-2.66539138322,-9.62730712667
-3.75696175151,4.98931139558,-0.842974014602,-6.80564783236
-4.98964810131,-3.04621137382,-4.03055664599,-13.033988538
1.24766554889,-7.32173414324,-6.91813927738,-17.4423292437
0.214979199096,-8.32725691265,-5.76572190876,-12.8106699494
-2.70770715071,-7.62277968205,-4.36330454015,-11.8890106551
-4.45039350051,-3.59830245146,-3.50088717153,-10.7073513608
-1.3830798503,1.39617477913,-0.82846980292,-8.26569206647
3.1542337999,1.28065200971,-1.38605243431,-5.55403277216
0.271547450102,9.7051292403,0.996364934308,3.64762652216
1.1688611003,15.4696064709,3.44878230292,17.7392858165
1.9261747505,9.13408370148,0.241199671535,10.2009451108
3.0234884007,1.23856093207,-4.14638295985,-4.6773955949
0.170802050903,4.86303816266,-4.53396559124,0.174263699414
6.31811570111,8.15751539325,-4.85154822262,7.82592299373
15.2754293513,11.4819926238,-4.90913085401,9.18758228804
9.87274300151,9.58646985443,-4.7367134854,13.7492415824
14.6600566517,9.76094708502,-2.15429611678,15.0009008767
11.1473703019,9.37542431561,-1.82187874817,11.542560171
8.97468395211,13.6999015462,-1.33946137955,14.3542194653
10.0119976023,12.1143787768,-2.70704401094,13.2458787596
3.79931125251,8.74885600738,-4.26462664233,7.07753805393
16.4966249027,11.113333238,-3.08220927371,11.2591973482
18.1539385529,11.7578104686,-1.6397919051,14.9908566426
14.8912522031,17.1822876991,0.812625463515,16.4025159369
10.9985658533,14.6367649297,0.35504283213,13.4341752312
12.5858795035,14.6112421603,-0.0725397992555,13.3458345255
14.6531931537,13.5557193909,1.29987756936,16.2774938198
15.6305068039,17.0801966215,0.422294937969,17.8891531141
17.0378204541,6.9746738521,-2.50528769342,11.1008124084
16.8451341043,11.0791510827,-2.1128703248,12.0824717028
9.22244775452,11.0236283133,-2.41045295619,11.7041309971
14.7197614047,9.70810554386,0.551964412427,14.5457902914
10.0770750549,9.94258277445,-0.08561821896,13.2774495857
7.77438870513,8.46706000504,-2.37320085035,11.57910888
10.3217023553,10.1115372356,1.64921651827,12.5207681743
12.6890160055,11.4960144662,2.13163388688,11.5124274686
7.37632965574,8.92049169682,1.11405125549,13.484086763
5.87364330594,5.5849689274,0.506468624109,10.9857460573
9.05095695613,7.89944615799,-0.0611140072779,8.18740535159
4.38827060634,7.05392338858,-1.42869663866,11.0090646459
9.30558425654,7.82840061918,2.33372072995,11.5007239402
7.18289790674,7.08287784976,3.51613809856,9.34238323453
6.78021155694,8.95735508035,1.09855546718,13.9840425288
6.62752520714,5.57183231094,-0.389027164207,10.6657018232
2.06483885735,1.92630954153,0.543390204406,2.68736111747
1.10215250755,2.82078677212,0.555807573019,5.20902041178
-4.14053384226,-0.454735997289,2.40822494163,3.0506797061
-6.82322019205,4.3697412333,3.89064231025,2.51233900041
-14.1559065418,-4.32578153611,1.31305967886,-5.46600170527
-2.39859289165,-7.12130430552,0.635477047475,-5.97434241096
-8.85127924145,-5.31682707493,0.747894416088,-1.73268311664
-11.6639655912,-6.40234984434,0.470311784704,-2.91102382233
-0.626651941049,-8.00787261375,0.932729153317,-1.80936452802
-3.59933829084,-4.66339538316,0.165146521931,-1.4777052337
-9.27202464065,-6.25891815257,1.31756389054,-8.13604593939
-6.16471099044,-9.90444092198,0.209981259157,-7.95438664507
-4.50739734024,-12.6999636914,-0.757601372228,-9.38272735076
-5.78008369004,-9.8654864608,-0.0951840036141,-9.74106805644
-6.52277003984,-11.6410092302,2.177233365,-6.69940876213
-10.8054563896,-8.29653199962,3.39965073361,-2.82774946782
-3.51814273943,-11.452054769,0.442068102227,-6.6660901735
-1.35082908924,-10.5775775384,-1.50551452916,-7.22443087919
-6.08351543904,-11.4831003079,-1.36309716054,-4.63277158487
-9.16620178883,-9.40862307727,1.15932020807,-6.26111229056
-16.2088881386,-13.0741458467,-0.928262423318,-10.1194529962
-12.0915744884,-15.7896686161,-0.625845054703,-7.70779370193
-12.4342608382,-12.5051913855,0.846572313911,-2.27613440762
-8.89694718803,-8.91071415491,1.86898968252,1.2855248867
-11.2196335378,-11.0662369243,1.50140705114,1.21718418101
-8.78231988763,-14.6717596937,-0.186175580247,-1.13115652467
-2.47500623742,-17.9772824631,0.146241788367,-4.31949723036
-4.08769258722,-17.1328052325,0.35865915698,-7.66783793604
-0.422365552302,-7.49498183138,-0.623317587213,-10.1941424419
4.18811215324,-10.9842931411,-0.979116719696,-10.0267408384
0.108589858792,-3.38360445086,0.625084147818,-3.84933923503
-1.22093243566,-4.73291576061,0.489285015334,-5.13193763162
-4.44045473012,-3.95222707035,0.263485882848,-6.7745360282
-5.94997702457,-8.54153838009,-3.09231324964,-8.70713442479
-8.19949931902,-11.0708496898,-1.03811238212,-8.68973282137
-3.31902161347,-4.82016099957,2.4960884854,-7.70233121795
1.45145609208,-4.82947230932,0.53028935291,-4.53492961454
0.671933797625,-1.83878361906,-0.945509779576,-4.25752801112
3.30241150317,-7.7880949288,-3.38130891206,-5.72012640771
10.2128892087,-4.95740623854,-3.58710804455,-2.55272480429
-0.0866330857316,-2.05671754829,-2.94290717703,-4.75532320088
1.15384461982,-1.65602885803,-4.09870630952,-3.89792159746
-0.575677674635,-0.47534016777,-1.064505442,-2.74051999405
-1.24519996908,0.0953485224891,-1.02030457449,-0.203118390634
7.99527773647,-0.573962787254,-1.89610370697,-1.82571678722
5.13575544201,1.116725903,-2.07190283945,-4.9183151838
4.34623314756,2.40741459326,0.56229802806,-0.370913580388
-1.21328914689,-0.611896716477,-0.153501104423,-1.05351197697
0.0471885586594,-3.12120802622,-0.539300236909,-3.65611037356
7.3376662642,5.74948066404,0.334900630607,-0.298708770143
-0.121856030244,-1.7498306457,-3.60089850188,-1.89130716673
-0.831378324699,-4.80914195544,-3.84669763436,-4.56390556331
0.83909938085,-7.51845326519,-4.16249676685,-3.8765039599
-3.6304229136,-5.35776457493,-1.69829589933,-1.24910235648
-4.23994520806,1.54292411533,-0.474095031817,0.878299246933
1.9105324975,1.55361280559,0.220105835697,1.20570085035
-1.67898979696,4.90430149584,1.40430670321,5.93310245376
-2.72851209141,4.6949901861,1.93850757073,5.10050405718
-4.03803438586,1.40567887636,1.31270843824,3.04790566059
-0.547556680314,-0.0236324333819,0.996909305757,1.34530726401
1.34292102524,3.58705625687,1.86111017327,1.71270886742
-3.43660126922,6.01774494713,4.12531104079,3.38011047084
-8.27612356367,8.93843363739,5.0795119083,7.60751207425
5.74435414188,1.42912232765,1.19371277582,1.02491367767
0.434831847429,1.79981101791,0.587913643334,1.62231528108
-1.10469044703,7.27049970817,2.26211451085,4.5797168845
-3.37421274148,2.93118839843,-1.71368462164,2.91711848791
-1.62373503593,-0.318122911318,-2.42948375412,3.62452009133
1.95674266962,6.07256577894,1.20471711339,7.81192169474
-0.512779624834,4.6132544692,0.828917980911,4.09932329816
-3.18230191928,7.20394315946,1.47311884843,6.40672490158
-2.57182421374,3.33463184972,0.307319715939,5.37412650499
4.04865349181,7.81532053997,1.67152058346,8.46152810841
9.75913119736,7.81600923023,1.18572145097,13.5689297118
6.96960890291,3.80669792049,-0.880077681513,8.46633131524
4.43008660845,6.59738661075,-0.985876814,5.03373291865
4.420564314,9.22807530101,1.15832405352,7.12113452207
-0.118957980449,4.57876399126,0.682524921031,9.32853612548
0.631519725102,8.98945268152,2.67672578855,11.9359377289
-1.48800256935,3.67014137178,0.860926656062,7.85333933231
4.7124751362,4.33083006204,0.685127523577,6.61074093573
6.06295284174,7.23151875229,2.10932839109,11.1581425391
9.35343054729,0.0122074425526,0.973529258607,6.65554414256
-0.0760917471562,2.19289613281,1.94773012612,7.85294574597
-0.335614041614,7.77358482307,2.91193099364,11.7603473494
3.20486366394,8.22427351333,1.23613186115,10.1577489528
4.19534136949,6.82496220359,0.140332728668,7.62515055622
-0.55418092497,2.59565089384,1.16453359618,4.79255215963
-2.69370321941,0.696339584105,-0.651265536302,1.67995376305
-7.22322551387,-3.80297172564,-1.67706466879,2.06735536646
-8.20274780832,-4.03228303538,-2.46286380127,-1.63524303012
-5.84227010277,-1.85159434512,-0.428662933757,0.0121585732932
-0.0917923972156,-1.49090565487,0.86553793376,2.23956017671
0.608685308332,-4.65021696461,-1.03026119873,-1.08303821988
1.08916301388,-2.72952827435,0.483939668789,-0.775636616462
0.709640719426,-5.75883958409,-0.811859463696,-3.15823501305
0.0701184249701,-1.06815089384,-0.207658596179,-2.12083340963
6.56059613052,4.56253779642,0.236542271336,-0.993431806216
-4.13892616393,-1.74677351332,-1.18925686115,-4.1260302028
-4.81844845838,-2.04608482306,-1.19505599363,-8.13862859939
-4.16797075283,3.2046038672,1.61914487388,-6.18122699597
-5.92749304729,2.34529255746,1.4433457414,-6.35382539256
-5.24701534174,-4.92401875228,-0.172453391089,-10.3664237891
-6.82653763619,-6.11333006203,0.141747476428,-8.31902218572
-7.80605993064,0.347358628231,1.07594834394,-1.40162058231
-6.74558222509,0.0280473184903,2.13014921146,1.09578102111
2.56489548046,2.36873600875,4.02435007897,0.00318262452038
2.48537318601,5.06942469901,5.81855094649,4.18058422794
-0.284149108447,4.24011338926,5.392751814,3.60798583135
-4.7936714029,1.46080207952,4.17695268152,0.645387434766
-4.60319369735,5.94149076978,4.07115354903,-0.167210961819
4.25728400819,5.76217946003,2.43535441655,4.9601906416
4.07776171374,-4.12713184971,0.579555284063,1.30759224501
-3.66176058071,-1.42644315945,-0.00624384842195,-2.86500615157
-2.94128287516,0.584245530812,0.0879570190918,1.89239545184
-2.42080516961,1.76493422107,-0.0978421133914,2.69979705526
-2.30032746407,-1.99437708867,-0.963641245877,-1.77280134133
2.82015024148,-5.40368839842,-0.58944037836,-2.85539973791
-1.63937205297,3.55700029184,1.08476048915,4.0620018655
3.60110565258,2.4976889821,1.81896135667,-0.760596531083
8.06158335813,-0.471622327641,0.813162224184,-0.633194927668
8.02206106368,-2.13093363738,-0.1226369083,3.53420667575
-9.38746123078,-4.64024494712,-2.28843604079,-8.27839172084
-5.37698352522,-0.829556256864,-3.94423517327,-1.45099011742
-1.03650581968,-3.01886756661,-3.10003430575,-1.70358851401
-4.15602811413,-3.44817887635,-1.64583343824,-2.67618691059
1.30444959141,2.37250981391,0.338367429276,-0.608785307177
0.394927296962,-5.45680149583,-0.0674317032099,-3.91138370376
0.315405002511,-8.13611280558,-0.603230835693,-6.37398210035
-6.09411729194,-5.81542411532,0.74097003182,-6.00658049693
-2.75363958639,-5.58473542506,0.915170899336,-8.74917889352
1.29683811916,-9.7440467348,-1.07062823315,-9.9217772901
-4.9526841753,-8.43335804455,-0.446427365634,-9.50437568669
-5.79220646975,-5.84266935429,-1.68222649812,-8.43697408327
-1.0317287642,-3.47198066403,-0.538025630603,-5.49957247986
-1.06125105865,1.16870802623,1.62617523691,-0.57217087644
-0.500773353102,-0.0206032835122,-1.32962389557,-0.454769273025
2.03970435244,-1.58991459325,-0.185423028057,0.99263233039
3.230182058,4.35077409701,3.63877783946,3.8000339338
6.57065976354,3.63146278726,2.80297870697,3.15743553722
7.69113746909,8.00215147752,2.24717957449,6.30483714064
6.85161517464,3.59284016778,0.371380442002,4.37223874405
8.98209288019,5.78352885804,0.325581309518,7.21964034747
3.76257058574,2.91421754829,0.079782177032,6.80704195088
-0.366951708718,0.984906238551,-2.11601695545,-0.335556445704
0.663525996832,1.45559492881,-3.97181608794,0.301845157711
4.47400370238,2.47628361907,-2.85761522042,3.08924676113
8.07448140793,0.766972309324,-2.36341435291,1.28664836454
1.74495911347,-0.262339000416,-1.31921348539,1.76404996796
-1.58456318098,-1.74165031016,-1.45501261788,-1.48854842863
-5.62408547543,-1.2109616199,-1.29081175036,0.288853174787
0.986392230123,-3.94027292964,-1.16661088284,-4.2737452218
0.636869935668,-5.03958423938,-2.10241001533,-8.04634361838
-6.31265235879,-2.92889554912,-2.18820914781,-4.07894201497
-4.63217465323,-3.33820685887,-2.1540082803,-5.02154041155
4.26830305231,-7.35751816861,-2.16980741278,-4.88413880814
4.08496002909,12.2691315407,8.84151526162,13.3535319767
9.16930490067,13.9371213491,10.1538794406,16.3293572606
1.60364977227,9.81511115753,8.02624361953,10.0451825444
7.28799464386,10.8231009659,6.51860779848,12.0610078282
2.80233951545,12.0710907744,5.22097197743,14.0668331121
-0.67331561297,18.1990805828,6.32333615638,14.8726583959
14.6310292586,16.7770703912,5.38570033533,18.3884836797
7.99537413021,13.5250601996,4.81806451428,13.6243089636
5.4197190018,11.903050008,5.72042869323,14.5801342474
5.55406387339,9.99103981643,5.07279287218,13.2859595312
2.74840874498,10.3190296248,4.70515705113,11.4517848151
1.11275361657,11.5770194333,4.96752123008,12.7476100989
-0.542901511843,10.6050092417,3.29988540903,13.1034353827
2.04144335975,8.49299905009,3.47224958798,7.28926066654
6.74578823134,10.8009888585,5.32461376694,11.5650859504
10.0701331029,11.5889786669,4.24697794589,13.2609112342
3.34447797451,4.26696847533,-0.250657875164,5.77673651804
-9.56117715389,1.59495828374,-0.978293696211,1.05256180187
-0.636832282304,2.50294809216,1.74407048274,-0.621612914303
4.55751258929,-3.72906209943,0.61643466169,-4.17578763047
0.951857460874,0.0889277089846,0.748798840639,-2.22996234664
-7.06379766754,-6.1830824826,-0.888836980408,-4.31413706281
-7.60945279595,-6.84509267419,-1.81647280146,-5.76831177898
-1.81510792435,-1.46710286577,-0.664108622508,-3.46248649515
-3.41076305277,-6.06911305735,-2.34174444356,-7.10666121132
-0.546418181177,-3.08112324894,-0.359380264606,-7.58083592749
1.11792669041,-7.79313344053,-3.18701608566,-5.58501064366
-0.407728438004,-2.84514363211,-3.5246519067,-3.52918535983
0.0866164335821,-1.2671538237,-2.21228772775,-0.623360075995
7.59096130518,-3.73916401529,-2.6299235488,0.152465207836
3.54530617676,-6.36117420687,-3.47755936985,-5.21170950833
-3.10034895164,-3.78318439846,-1.5251951909,-4.9858842245
-0.50600408006,-5.83519459004,-2.96283101195,-9.39005894067
2.88834079153,-13.3972047816,-5.650466833,-12.9042336568
