-7.03212572672,-21.1093313953,-1.1078633721,-19.1305486919
-7.95739121725,-25.5479442868,-3.17017187215,-22.7128887223
-4.88265670777,-17.6865571782,-3.82248037219,-20.7652287527
1.5820778017,-14.3851700696,-5.53478887224,-16.5375687832
-3.61318768882,-13.563782961,0.612902627719,-12.5799088136
-5.62845317935,-20.5523958524,0.890594127672,-17.6122488441
-8.08371866987,-17.6510087438,-0.871714372373,-19.4645888745
-12.2489841604,-8.33962163523,-0.994022872423,-14.316928905
-11.4742496509,-12.9582345266,-3.65633137247,-19.7292689354
-16.5795151414,-15.696847418,-4.71863987251,-20.5116089658
-6.46478063197,-14.0854603095,-2.98094837256,-17.8039489963
-8.36004612249,-8.84407320087,-1.8932568726,-16.2362890267
-5.97531161302,-5.70268609229,0.404434627351,-10.8086290572
3.19942289646,-7.7212989837,1.87212612731,-11.2909690876
-10.2658425941,-11.0199118751,2.35981762726,-15.4533091181
-12.8511080846,-12.0085247665,3.76750912721,-14.8256491485
-4.31637357511,-6.11713765794,6.01520062717,-8.29798917895
-9.49163906564,-5.32575054935,1.34289212712,-9.06032920939
-3.40690455616,-1.95436344076,1.02058362708,-9.61266923983
-5.47217004668,-8.62297633218,-1.20172487297,-8.06500927028
-0.7674355372,-7.90158922358,1.03596662699,-6.14734930072
0.787298972267,-1.58020211499,2.48365812694,-5.53968933116
4.87203348175,3.73118499359,0.841349626895,-2.57202936161
4.27676799122,6.87257210218,-0.390958873155,-0.0843693920488
3.7315025007,5.59395921077,2.1667326268,5.88329057751
2.35623701017,0.35534631936,5.45442412675,8.86095054706
6.73097151965,1.54673342795,4.61211562671,6.59861051662
9.15570602913,7.82812053653,2.64980712667,5.03627048618
-2.1695594614,10.2795076451,0.267498626617,1.21393045573
8.52517504808,6.55089475371,-1.52480987343,8.59159042529
-2.21009044244,4.9822818623,2.02288162653,14.4692503948
-0.455355932965,5.86366897088,0.560573126484,8.83691036441
3.19937857651,14.8450560795,1.96826462644,14.724570334
6.56411308599,19.2864431881,5.62595612639,18.7922303035
6.75884759545,9.68783029665,4.63364762635,13.5198902731
3.88358210494,12.1092174052,4.4313391263,13.6775502426
-3.50168338558,11.2506045138,3.28903062626,14.5452102122
-0.386948876112,7.87199162241,3.34672212621,12.1328701817
4.56778563336,13.743378731,2.35441362616,13.6805301513
-5.43747985716,7.76476583959,4.70210512611,13.3481901209
-3.68274534768,1.71615294817,3.95979662607,7.51585009042
5.96198916179,0.59754005677,0.527488126023,6.75351005997
4.01672367127,4.22892716535,0.70517962598,8.47117002953
-5.04854181926,1.69031427394,-1.76712887407,5.29882999909
-6.02380730978,-2.37829861747,-3.79943737411,3.35648996864
-9.1390728003,-6.18691150888,-5.19174587416,-0.325850061799
-3.42433829083,3.7744755997,-2.5140543742,2.80180990776
-5.37960378135,6.82586270829,-1.80636287425,7.44946987731
-1.08486927188,6.27724981689,-2.27867137429,5.17712984687
-1.3801347624,0.328636925471,-1.51097987434,4.83478981643
-3.18540025293,1.01002403405,-0.263288374386,4.82244978598
-6.95066574345,4.58141114264,1.63440312557,4.98010975554
-2.15593123397,12.4527982512,2.07209462552,9.5177697251
-5.11119672449,10.3941853598,2.06978612548,9.71542969465
-4.05646221501,6.76557246841,1.50747762543,7.99308966421
-3.57172770554,3.91695957699,-0.374830874614,8.85074963377
-8.00699319607,5.01834668559,2.72286062534,8.21840960333
-4.51225868659,9.61973379418,4.33055212529,7.26606957288
2.54247582288,4.56112090276,0.208243625246,4.38372954244
-1.62278966764,2.85250801135,1.3459351252,3.641389512
0.0419448418397,-2.09610488006,1.09362662516,2.88904948155
-5.37332064869,-0.254717771473,0.771318125113,2.79670945111
0.0614138607925,7.18666933711,1.52900962506,4.76436942067
0.366148370267,11.1780564457,1.04670112502,6.71202939022
1.14088287974,7.94944355429,1.87439262497,8.62968935978
0.295617389223,4.99083066288,2.09208412493,7.47734932934
-0.399648101309,7.39221777146,0.649775624883,12.1950092989
5.02508640817,13.4636048801,2.87746712484,10.9426692685
8.66982091765,16.3449919886,3.32515862479,11.120329238
0.644555427119,7.01637909723,0.452850124748,7.18798920756
8.7392899366,6.26776620582,1.6305416247,7.47564917712
11.6340244461,11.5291533144,1.89823312465,14.3233091467
11.6287589556,12.460540423,-0.704075375394,12.2609691162
11.063493465,16.9519275316,-0.196383875438,16.1586290858
8.1882279745,16.4733146402,1.95130762452,21.6762890553
1.55296248398,6.31470174876,1.35899912447,6.7239490249
11.0076969935,14.1260888574,-4.21330937557,11.3716089945
22.7324315029,16.2374759659,-1.82561787562,16.899268964
18.9671660124,12.0588630745,-2.16792637567,10.4569289336
18.1919005219,13.4102501831,-5.86023487571,15.0845889031
14.7366350314,7.1416372917,-2.18254337575,11.9422488727
23.2913695408,11.3130244003,-0.594851875801,13.5699088422
26.7461040503,18.8844115089,-0.777160375848,19.3575688118
14.8908385598,10.6657986175,-5.32946887589,11.2452287814
9.75557306926,9.27718572605,-6.22177737594,9.48288875092
13.1203075787,-0.321427165363,-4.44408587598,6.65054872047
16.4850420882,3.37995994322,-2.36639437603,6.98820869003
18.4697765977,13.5013470518,-0.988702876079,11.8358686596
11.5945111072,9.86273416041,-3.43101137612,11.6835286291
12.2092456166,3.04412126899,-5.09331987617,4.7511885987
13.5639801261,-6.87449162242,-7.42562837622,-2.40115143174
12.6587146356,-5.64310451383,-8.45793687626,-4.23349146219
15.0834491451,0.178282594759,-10.5402453763,-1.25583149263
20.4981836545,2.08966970335,-10.0125538763,1.89182847693
13.382918164,-8.86894318807,-9.5748623764,-7.02051155351
7.2076526735,-9.70755607948,-8.78717087644,-6.88285158396
7.79238718298,-4.81616897089,-6.55947937649,-1.3851916144
14.4471216925,1.81521813769,-6.30178787653,1.87246835516
12.2718562019,1.77660524628,-4.80409637658,0.340128324713
10.7565907114,-7.21200764512,-6.31640487662,-6.01221170573
1.72132522088,-11.2906205365,-5.15871337667,-9.92455173617
-0.0539402696377,-10.389233428,-4.20102187671,-9.40689176662
5.11079423983,-2.47784631937,-5.10333037676,-5.15923179706
7.04552874931,-4.03645921077,-3.13563887681,-6.1215718275
2.82026325879,-7.52507210219,-3.00794737686,-7.48391185795
-2.84500223174,-10.2436849936,-2.3002558769,-8.84625188839
-1.14026772226,-10.812297885,-2.28256437695,-9.41859191883
-5.15553321279,-3.66091077642,-0.05487287699,-7.10093194928
0.219201296692,-7.78952366783,-0.397181377037,-12.4332719797
-6.78606419384,-7.83813655925,-0.759489877084,-11.7856120102
-10.7713296844,-10.7567494507,0.798201622871,-11.4479520406
-10.6665951749,-9.39536234207,1.79589312283,-9.17029207105
-6.61186066541,-4.51397523348,1.36358462278,-7.94263210149
-12.3471261559,-4.7925881249,2.70127612273,-7.42497213194
-16.1723916465,-8.35120101631,4.83896762269,-6.86731216238
-15.407657137,-10.0198139077,5.61665912264,-9.67965219282
-20.7129226275,-8.63842679913,5.9943506226,-10.1219922233
-18.598188118,-2.98703969055,7.82204212255,-7.84433225371
-15.9534536085,0.844347418046,7.94973362251,-5.02667228415
-13.0787190991,-2.91426547337,6.80742512246,-6.45901231459
-18.0539845896,-4.02287836478,7.35511662241,-8.11135234504
-18.3092500801,-9.60149125619,4.17280812237,-11.3536923755
-12.5045155706,-5.22010414761,4.12049962232,-9.49603240592
-16.4697810612,-4.09871703901,6.06819112228,-10.0483724364
-18.6750465517,-14.5873299304,6.61588262223,-14.6107124668
-14.2603120422,-17.4959428218,6.47357412218,-14.9030524973
-22.4255775327,-13.8645557133,4.75126562214,-13.6953925277
-12.4008430233,-11.8431686047,3.33895712209,-13.1577325581
-11.7230305233,4.2428597384,9.23226380814,-2.24375
-14.0078634579,-0.542433820476,8.741421071,-1.99221825787
-13.6826963926,-4.57772737934,6.53057833387,-5.15068651574
-9.33752932727,-3.32302093822,5.88973559673,-3.48915477362
-2.77236226194,2.69168550291,9.69889285959,0.232376968506
0.922804803384,6.02639194404,9.20805012246,-0.656091289369
-2.33202813129,-1.49890161484,8.15720738532,-1.02455954724
-7.22686106596,-3.05419517371,9.21636464818,-2.58302780512
-6.48169400063,-1.75948873258,8.14552191105,-3.51149606299
-8.50652693531,-0.814782291454,6.69467917391,-5.13996432086
-1.58135986998,-0.740075850328,5.31383643677,-6.68843257874
-12.4761928047,-5.0053694092,4.89299369964,-8.19690083661
-15.3110257393,-9.07066296807,1.1021509625,-9.75536909449
-9.075858674,-7.31595652695,-0.41869177463,-12.4938373524
-6.16069160867,0.848749914185,1.62046548823,-7.81230561023
-4.76552454334,-1.84654364469,-0.0803772489053,-10.4907738681
-7.64035747802,-4.44183720356,0.238780013959,-12.179242126
-15.8051904127,-10.7371307624,-1.92206272318,-15.8577103839
-9.15002334736,-9.3924243213,-0.64290546031,-14.2661786417
-11.714856282,-3.70771788017,1.97625180255,-10.8546468996
-18.3196892167,-1.53301143905,2.15540906541,-11.4731151575
-14.1445221514,-4.18830499792,-0.0554336717214,-11.2615834154
-8.16935508606,-4.3435985568,-1.70627640886,-8.10005167323
-3.01418802074,-3.41889211567,0.692880854007,-7.4885199311
-0.809020955407,3.91581432546,2.28203811687,-4.21698818897
4.51614610992,8.10052076659,0.741195379735,-2.59545644685
-0.878686824755,0.215227207715,-2.1096473574,-2.03392470472
2.68648024058,-2.48006635116,-0.480490094538,-3.2523929626
7.5516473059,-3.39535991003,-2.35133283167,-2.99086122047
7.67681437123,4.6793465311,-1.27217556881,-0.799329478346
7.87198143655,8.46405297223,-0.463018305945,2.65220226378
6.20714850188,1.98875941336,0.23613895692,3.22373400591
8.38231556721,-4.19653414551,-0.614703780218,0.305265748033
11.3474826325,-1.27182770438,0.0144534826468,2.19679749016
14.1126496979,5.53287873673,1.80361074551,9.84832923228
13.4778167632,8.37758517786,0.312768008374,17.8798609744
6.49298382852,-5.517708381,-2.18807472876,-2.31860728347
-0.271849106161,-4.39300193988,-4.9089174659,4.77292445866
-3.00668204084,-3.98829549876,-2.44976020304,2.21445620079
6.52848502449,8.01641094238,-2.46060294017,2.96598794291
6.62365208982,2.5911173835,-4.1814456773,5.06751968504
6.03881915515,-0.064176175365,-4.49228841444,5.21905142716
8.46398622048,-1.68946973424,-4.80313115158,4.91058316929
5.0591532858,5.09523670689,0.386026111286,12.3621149114
5.66432035113,5.38994314802,-1.61481662585,7.76364665354
5.74948741645,7.82464958914,-2.06565936298,6.23517839567
1.67465448178,0.969356030277,-2.90650210012,3.56671013779
2.59982154711,-4.0959375286,-4.64734483726,3.14824187992
5.33498861243,-2.86123108747,-5.42818757439,5.05977362205
4.62015567776,3.69347535365,-4.16903031153,9.31130536417
8.22532274309,2.93818179478,-4.76987304866,11.3128371063
4.71048980841,0.972888235905,-5.9507157858,5.35436884842
2.14565687374,-5.14240532296,-6.64155852294,2.18590059055
9.11082393907,-2.74769888184,-4.64240126007,5.79743233268
11.7859910044,5.5770075593,-3.81324399721,11.5889640748
13.9211580697,5.15171400042,-3.47408673435,8.87049581693
10.916325135,0.106420441552,-3.33492947148,8.84202755905
5.74149220037,-3.28887311732,-1.70577220862,8.22355930118
7.1166592657,2.93583332381,-1.53661494575,8.74509104331
13.431826331,4.86053976494,-2.22745768289,7.45662278543
12.5969933964,7.97524620606,-2.08830042003,9.92815452756
9.65216046168,2.92995264719,-1.47914315716,9.68968626968
6.55732752701,-0.885340911685,-2.6899858943,10.0812180118
6.84249459233,-0.840634470558,-3.17082863144,7.40274975394
8.94766165766,8.66407197057,1.54832863143,9.15428149606
10.752828723,4.2887784117,-1.20251410571,6.05581323819
5.46799578831,-3.45651514718,-2.60335684284,5.46734498031
-0.55683714636,-4.89180870604,-1.70419957998,3.68887672244
-0.0516700810331,0.682897735081,-1.27504231711,5.24040846457
4.20349698429,9.00760417621,0.314114945751,11.0819402067
3.28866404962,7.35231061734,-2.94672779139,10.3334719488
13.7538311149,2.70701705846,-2.44757052852,6.02500369094
2.07899818027,5.6017234996,0.191586734345,5.13653543307
5.9541652456,3.77642994072,-1.88925600279,9.17806717519
8.51933231093,6.50113638185,-1.48009873993,8.03959891732
6.85449937626,8.25584282297,-2.30094147707,9.26113065945
6.01966644159,1.9105492641,-2.0117842142,7.48266240157
4.37483350691,-0.964744294775,-2.52262695134,3.6641941437
10.0400005722,3.79996214635,-2.09346968847,10.6257258858
11.9751676376,9.93466858748,-1.30431242561,10.5272576279
6.96033470289,10.0193750286,-2.84515516275,7.26878937008
19.4655017682,12.1540814697,-1.29599789988,13.3803211122
4.55066883354,-0.0312120891322,-1.51684063702,5.05185285433
1.13583589887,5.343494352,-4.21768337415,7.45338459645
5.89100296419,6.35820079313,-6.71852611129,4.93491633858
5.56617002952,4.75290723425,-4.38936884843,3.35644808071
1.17133709485,-3.04238632462,-5.30021158556,-0.922020177168
-1.56349583983,-8.06767988349,-6.4810543227,-5.36048843504
-1.07832877449,-5.40297344236,-5.09189705983,-6.24895669292
-3.61316170917,2.27173299876,-4.95273979697,-5.63742495079
-0.747994643847,0.416439439883,-7.34358253411,-6.96589320866
-9.85282757851,-3.05885411899,-6.73442527124,-11.0043614665
-10.1976605132,-7.97414767786,-5.38526800838,-8.69282972441
-8.44249344787,-3.60944123673,-4.69611074551,-8.30129798229
-1.09732638254,-0.0447347955997,-6.09695348265,-6.16976624016
-2.24215931721,6.90997164553,-3.89779621979,0.521765501966
-0.176992251887,0.044678086655,-5.10863895692,1.07329724409
-2.20182518655,-8.87061547222,-5.05948169406,-1.58517101378
-2.25665812123,-7.47590903109,-6.37032443119,-3.40363927166
-7.09149105591,-4.94120258996,-6.81116716833,-7.53210752953
-9.55632399058,-1.27649614883,-3.39200990547,-6.94057578741
-17.3511569253,-8.97178970771,-2.4228526426,-10.0790440453
-21.5859898599,-12.1070832666,-3.51369537974,-11.8675123032
-14.6708227946,-8.92237682545,0.215461883123,-9.57598056103
-10.1556557293,-1.58767038432,2.23461914599,-7.6644488189
-5.18048866394,3.96703605681,1.25377640886,-0.922917076776
-4.43532159862,2.11174249793,2.44293367172,-1.54138533465
-10.0801545333,-8.27355106094,0.32209093458,-6.44985359252
-2.82498746796,-7.34884461981,0.371248197443,-7.1583218504
-8.68982040264,-3.95413817868,2.30040546031,-8.80679010827
-4.38465333731,0.680568262447,3.08956272317,-6.44525836615
-8.48948627198,-8.81472529643,0.428719986037,-8.89372662402
-9.90431920665,-12.9000188553,4.0578772489,-11.1021948819
-8.81915214133,-3.36531241417,5.82703451176,-6.58066313977
-3.553985076,0.0293940269548,4.10619177463,-5.04913139764
-4.38881801067,3.21410046808,8.62534903749,-3.67759965552
1.40634905465,1.31880690921,11.1345063004,-3.17606791339
-5.37848388002,-5.42648664966,9.73366356322,-8.01453617126
-2.8633168147,-5.53178020854,8.01282082608,-4.54300442914
7.57185025063,2.45292623259,10.5419780889,3.73852731299
3.75701731596,-1.43236732628,9.40113535181,-6.86994094489
-2.57781561872,-0.0476608851532,5.21029261468,-6.96840920276
-6.34264855339,-1.96295444402,7.77944987754,-0.726877460635
-7.37748148806,4.1417519971,10.2686071404,-1.27534571851
0.437685577264,11.1964584382,9.79776440327,5.65618602362
1.27285264259,11.0011648794,8.19692166613,7.47771776574
2.95801970792,1.81587132049,3.216078929,2.25924950787
1.41318677324,-2.86942223839,5.47523619186,-0.479218750004
7.39817223839,5.86810683142,4.63755087208,-0.797278343016
9.30135924055,14.2257682888,5.78367703945,2.14902845175
11.0345462427,17.9334297462,5.38980320682,2.52533524653
-0.282266755152,12.3710912036,5.32592937419,-0.858357958699
3.340920247,7.33875266093,6.54205554156,-0.502051163929
3.26410724915,1.76641411831,2.56818170893,-4.28574436916
6.03729425131,12.0940755757,6.7343078763,3.10056242562
5.22048125345,9.95173703307,4.22043404367,3.52686922039
6.5136682556,5.71939849044,2.95656021103,0.813176015159
-2.98314474224,1.02705994782,4.2826863784,-1.43051719007
2.3800422599,3.75472140521,5.35881254578,2.56578960471
-0.13677073794,8.46238286259,4.20493871314,-0.337903600524
-1.16358373579,5.70004431996,3.07106488051,-0.641596805754
-1.99039673364,6.65770577734,3.30719104788,2.99470998902
1.11279026851,-2.97463276528,1.97331721525,-1.29898321621
-3.61402272934,2.38302869211,3.44944338262,1.68732357856
-1.87083572719,5.06069014948,3.10556954999,0.163630373336
-1.58764872504,5.86835160686,0.761695717352,-0.890062831893
-0.204461722882,3.89601306424,2.37782188472,0.0262439628805
-5.57127472073,-0.146325478381,2.59394805209,-1.74744924235
-5.70808771858,5.551335979,3.78007421946,4.81885755242
-2.33490071643,10.6889974364,3.61620038683,8.65516434719
-4.11171371427,9.52665889376,6.0123265542,4.51147114197
-4.02852671212,5.05432035113,3.31845272156,3.94777793674
1.74466029002,5.86198180851,5.56457888893,8.46408473151
-4.41215270782,7.4496432659,6.3307050563,8.99039152628
3.56103429433,13.6373047233,5.93683122367,14.1466983211
0.564221296489,13.3249661807,5.89295739104,13.8330051158
0.407408298634,11.692627638,2.92908355841,11.4293119106
5.92059530078,0.20028909541,-0.614790274223,9.63561870537
-1.70621769706,0.917950552794,3.33133589315,5.54192550014
1.77696930509,3.63561201018,0.227462060517,6.09823229491
-2.57984369277,2.34327346755,-0.746411772114,4.46453908969
1.28334330939,1.24093492493,0.779714395252,4.52084588446
