-10.8639098837,-1.3324127907,5.32343023255,-4.56686409884
-4.35794279894,1.52533928081,5.61916361472,-6.04794694767
-10.2219757142,-12.1769086477,2.55489699688,-12.5790297965
-5.68600862937,-13.6791565762,1.98063037905,-10.2601126453
-0.880041544588,-4.13140450467,5.97636376121,-4.48119549419
-4.04407445981,0.716347566835,7.52209714338,-4.84227834302
-0.718107375018,-3.78590036165,5.82783052554,-4.67336119186
-7.55214029024,-6.46814829015,7.35356390771,-6.5744440407
-7.93617320545,-9.19039621864,4.59929728987,-7.39552688953
-5.13020612067,-3.87264414713,1.23503067203,-8.24660973837
-2.51423903589,-3.40489207562,1.2107640542,-9.79769258721
-4.5082719511,-8.52714000412,0.926497436365,-12.928775436
-7.62230486632,-11.4293879326,0.832230818531,-13.8598582849
-8.24633778154,-9.6016358611,3.67796420069,-11.2209411337
2.51962930325,-3.0538837896,3.63369758286,1.19797601744
-7.76440361197,-7.97613171809,2.24943096502,-7.4131068314
-16.4784365272,-10.2783796466,-1.59483565281,-19.0741896802
-5.75246944241,-11.4006275751,-3.33910227065,-15.3452725291
-2.42650235762,-14.3528755036,-4.54336888848,-11.8163553779
-2.23053527284,-3.64512343206,-4.48763550632,-4.53743822674
4.58543181194,-4.51737136055,-4.94190212416,-6.17852107558
-1.87860110328,-2.61961928905,-3.41616874199,-3.83960392442
3.09736598151,-6.17186721754,-2.41043535983,-1.36068677326
1.84333306629,-5.64411514604,-1.06470197766,-0.301769622094
-0.59069984893,11.3836369255,2.3610314045,9.30714752907
3.78526723586,8.35138899698,-2.29323521333,7.73606468023
6.17123432065,6.39914106848,-3.80750183117,6.9649818314
-0.452798594575,2.77689313998,-0.271768449005,4.32389898256
6.76316849021,1.23464521149,0.623964933158,4.42281613372
7.89913557498,3.42239728301,-0.760301684677,5.11173328488
0.995102659777,10.8201493545,-1.74456830251,6.27065043604
2.55106974456,9.56790142602,0.411165079651,11.0695675872
1.42703682934,1.07565349752,1.86689846182,5.60848473837
2.68300391412,6.95340556903,1.06263184398,9.44740188953
8.2889709989,15.8411576405,2.68836522615,17.4363190407
9.38493808368,14.208909712,0.194098608314,13.2252361919
11.3909051685,9.19666178355,-1.19016800952,10.044153343
-0.483127746753,-2.89558614494,-2.71443462736,0.943070494186
-3.47716066196,-4.12783407343,-2.92870124519,3.71198764535
-0.511193577178,2.35991799807,-0.71296786303,5.29090479651
6.1847735076,9.36767006958,0.452765519134,9.54982194767
-4.85925940762,11.2954221411,2.7984989013,5.91873909884
-1.55329232284,1.1631742126,1.65423228346,1.82765625
-1.57732523805,-0.0190737158991,0.319965665629,4.70657340116
-2.52135815327,10.5986783556,1.50569904779,7.19549055233
1.52460893151,13.0764304271,0.641432429959,10.5444077035
2.9705760163,10.9041824986,0.417165812119,7.36332485465
8.01654310108,7.32193457013,1.00289919429,7.91224200581
0.732510185866,5.50968664164,0.218632576449,8.20115915698
2.95847727064,5.10743871314,-1.36563404139,2.31007630814
5.08444435542,8.93519078465,-1.69990065922,4.4989934593
12.2104114402,8.21294285616,-2.99416727706,7.92791061046
7.436378525,-0.419305072341,-4.52843389489,2.13682776163
3.41234560978,-2.20155300083,-3.28270051273,-0.464255087212
4.05831269456,4.74619907067,-0.886967130566,3.10466206395
3.98427977935,3.31395114218,-1.1912337484,1.91357921511
10.8502468641,4.4017032137,-0.165500366234,5.70249636628
1.99621394891,0.159455285197,1.00023301593,3.42141351744
-0.28781896631,-6.75279264329,-1.9240336019,-0.0696693313985
7.05814811848,-5.25504057179,-4.60830021974,-1.00075218023
12.0641152033,4.00271149972,-3.26256683757,2.92816497093
-2.64991771196,0.260463571227,-4.17683345541,-0.43291787791
-1.24395062718,-2.80178435727,-2.92110007325,2.71599927325
0.0220164576094,-5.19403228576,-4.88536669108,2.19491642442
4.24798354239,-0.61628021425,-4.09963330892,1.09383357558
7.35395062717,5.95147185725,-1.06389992675,4.48275072674
10.159917712,4.98922392876,-2.93816654459,4.1216678779
12.0658847967,0.476976000267,-2.46243316243,3.77058502907
-1.03814811847,-1.71527192822,-1.47669978026,6.46950218023
0.0478189663045,7.82248014328,0.199033601904,7.37841933139
2.75378605109,10.7102322148,-1.16523301593,5.74733648256
1.18975313588,8.5879842863,-2.42949963377,8.90625363372
0.625720220654,2.3457363578,2.1062337484,6.98517078488
1.74168730544,1.22348842931,3.16196713056,3.30408793604
0.367654390218,5.49124050081,2.06770051273,4.91300508721
2.023621475,9.86899257232,-0.036566105111,5.17192223837
1.63958855979,8.75674464383,0.0791672770538,4.31083938953
-2.90444435543,4.90449671534,1.26490065922,3.4097565407
-7.79847727065,-3.58775121316,-0.939365958617,-4.03132630814
-3.51251018587,-0.149999141649,-2.79363257645,-3.10240915698
2.85345689892,5.81775292986,-3.26789919428,-0.223492005816
-4.0305760163,6.64550500136,-2.07216581212,-0.254574854654
-7.97460893152,-1.02674292713,-2.72643242995,-0.715657703491
-4.08864184673,-4.55899085562,-4.58069904779,0.113259447671
2.34732523805,-2.39123878411,-2.89496566563,-3.24782340117
-4.18670767717,1.18651328739,-1.52923228346,-4.63890625
-1.97074059238,-2.0757346411,-4.7234989013,-3.19998909884
-3.11477350761,-8.91798256959,-3.51776551913,-4.55107194768
3.23119357718,-5.04023049809,-0.32203213697,-1.89215479651
-2.99283933804,-0.212478426576,-0.896298754804,-0.783237645352
0.223127746744,4.14527364493,-0.940565372643,0.86567950581
1.13909483152,5.22302571643,-0.0248319904786,3.13459665697
4.98506191631,-4.09922221206,-2.49909860831,-0.176486191864
2.94102900109,-2.65147014055,-0.643365226148,-0.117569040702
5.88699608588,5.74628193096,-1.50763184398,5.33134811046
0.322963170656,2.48403400246,-3.30189846182,-0.939734738375
4.80893025544,-3.45821392603,-3.67616507965,-2.84081758721
9.20489734023,-9.95046185453,-3.56043169749,-0.77190043605
1.96086442501,-10.772709783,-4.65469831533,-3.93298328489
-1.43316849021,-9.61495771151,-3.44896493316,-4.98406613373
-2.57720140542,-0.467205640001,-1.233231551,0.974851017438
-4.73123432064,-9.5894535685,-1.67749816883,-4.0362318314
0.564732764142,-6.49170149699,2.03823521333,-0.0673146802364
-1.76930015108,-12.5239494255,0.113968595499,-3.49839752907
-1.58333306629,-6.42619735398,0.499701977664,-3.02948037791
1.91263401849,-5.28844528247,-0.834564640172,-1.52056322675
1.70860110327,-6.47069321096,-1.12883125801,-2.73164607559
-3.36543181194,-12.5129411395,0.286902124157,-5.38272892442
-3.27946472716,-11.995189068,2.76263550632,-4.80381177326
-1.31349764238,-2.81743699644,2.36836888848,0.105105377901
5.61246944241,5.19031507507,1.96410227065,3.74402252907
2.45843652719,9.69806714657,3.41983565281,2.79293968023
-7.49559638803,-0.294180781922,2.46556903498,-1.58814316861
0.240370696753,-2.90642871041,3.09130241714,-0.569226017446
-2.38366221846,5.2213233611,2.71703579931,1.16969113371
0.982304866317,5.5390754326,1.68276918147,0.668608284879
2.61827195111,8.32682750411,4.99850256363,2.31752543604
7.55423903589,-0.41542042439,5.9342359458,0.0464425872051
-3.66979387933,-6.40766835288,3.83996932796,-3.69464026163
-6.47382679455,1.19008371863,4.17570271013,-1.46572311047
-7.98785970977,4.83783579014,2.81143609229,-0.326805959307
-2.25189262498,-0.824412138361,1.60716947446,-3.77788880814
-6.3259255402,-1.31666006685,3.60290285662,-7.06897165698
-5.64995845542,-6.94890799534,-1.29136376121,-9.89005450582
-9.03399137064,-4.20115592384,0.674369620949,-10.3511373547
-11.0280242858,4.17659614767,6.22010300312,-5.35222020349
-0.392057201068,-0.295651780827,5.48583638528,-5.49330305233
-8.34609011628,-4.80789970932,5.09156976745,-11.1543859012
-3.97638808137,-10.1125036337,-3.63330668605,-10.3542223837
-1.2405825112,-6.16179491506,-4.18101543903,-5.80649225759
1.74522305898,0.508913803576,-4.638724192,-1.27876213147
4.82102862916,0.239622522218,-4.08643294498,-0.691032005352
-1.23316580066,-2.04966875914,-0.994141697956,-2.78330187923
-2.00736023048,-2.1489600405,-2.39185045093,-5.34557175311
0.328445339699,-6.21825132186,-4.06955920391,-6.53784162699
-5.44574909012,7.58245739678,0.142732043118,-2.73011150087
-0.089943519939,7.98316611542,-0.114976709858,1.16761862526
1.10586205024,-0.966125165934,-2.52268546283,-0.524651248623
-3.35833237958,-4.34541644729,-4.50039421581,-0.156921122501
3.0274731906,-1.24470772865,-4.77810296879,2.33080900362
5.45327876077,2.25600098999,-3.71581172176,2.56853912974
3.28908433095,-0.813290291371,-3.01352047473,-1.38373074414
5.84488990113,-6.04258157273,-0.36122922771,-2.64600061802
4.74069547132,-5.18187285409,2.09106201931,-2.74827049189
3.8965010415,5.53883586455,2.16335326634,0.479459634229
5.74230661167,0.409544583192,1.03564451336,0.537189760349
2.06811218186,-2.56974669817,-1.45206423961,0.184919886471
0.083917752032,-10.9290379795,0.12022700741,-4.56734998741
-5.06027667779,-9.12832926089,-0.227481745565,-4.28961986129
-6.12447110761,-6.42762054224,-2.46519049854,-2.49188973517
3.09133446257,0.813088176401,0.117100748485,1.09584039096
1.76714003275,4.73379689504,0.799391995512,-0.506429482921
-4.10705439707,-6.93549438631,1.10168324253,-1.6586993568
12.8487511731,-8.86478566768,-0.0960255104437,2.48903076932
4.20455674329,-3.98407694903,-0.55373426342,4.15676089544
-7.04963768653,-0.383368230396,-0.921443016392,-0.285508978435
-8.57383211635,3.07734048825,-0.109151769368,-0.787778852315
-2.97802654618,-1.58195079312,-0.716860522341,-1.36004872619
-5.182220976,0.438757925527,-0.844569275319,2.26768139993
-4.00641540582,-0.320533355829,-0.382278028297,1.94541152605
5.85939016436,7.78017536282,0.190013218729,5.59314165217
11.7451957345,10.1508840814,2.90230446575,10.8808717783
0.621001304724,0.771592800098,3.16459571278,6.28860190442
5.39680687489,5.53230151874,4.1068869598,8.66633203054
3.55261244508,1.14301023738,1.36917820683,2.23406215666
8.50841801526,7.08371895601,0.311469453853,5.13179228278
0.574223585434,2.80442767466,1.73376070087,5.7395224089
3.32002915561,-2.4048636067,3.3960519479,2.19725253502
1.0958347258,-3.93415488806,2.78834319492,-0.295017338854
1.79164029597,-4.47344616942,2.99063444195,-0.667287212733
-2.69255413384,10.1772625492,5.06292568897,5.71044291339
-3.90674856367,-1.92202873214,0.915216935999,1.51817303951
4.23905700651,-8.30132001349,0.547508183023,-0.974096834369
0.474862576688,-4.70061129485,-0.0902005699536,-1.23636670825
7.44066814687,4.34009742379,1.62209067707,7.16136341787
14.466473717,4.18080614242,-0.415618075906,5.739093544
-0.677720712767,10.7915148611,2.69667317112,7.22682367012
6.43808485741,2.64222357971,4.89896441815,5.31455379624
8.28389042758,-1.82706770165,4.28125566517,5.32228392236
5.67969599777,9.29364101699,5.77354691219,11.6500140485
5.41550156795,14.8343497356,4.39583815922,12.7177441746
6.99130713812,19.6250584543,4.36812940624,12.1854743007
4.5271127083,8.02576717292,2.41042065327,9.11320442685
0.672918278484,5.91647589156,3.76271190029,5.37093455297
1.23872384866,4.9271846102,1.85500314732,1.75866467909
2.79452941884,9.74789332884,1.74729439434,5.51639480521
1.75033498902,7.12860204748,2.25958564137,3.80412493133
8.9361405592,-3.70068923388,-0.79812311161,1.85185505745
-3.32805387062,-0.329980515242,-0.695831864588,1.38958518358
-4.07224830044,4.6707282034,-0.54354061756,2.8773153097
-1.51644273026,15.131436922,2.85875062946,5.16504543582
-6.16063716009,5.49214564068,1.17104187649,-1.52722443806
-6.0348315899,-2.83714564067,-0.916666876488,-1.94949431194
2.92097398028,-6.70643692203,-1.08437562946,-5.18176418582
-8.91322044955,-1.43572820339,-1.83208438244,-6.2840340597
0.812585120628,3.58498051525,-1.50979313541,-0.646303933574
-0.891609309183,3.12568923389,-2.54750188839,-1.01857380745
-4.03580373901,-0.903602047467,-1.66521064136,-4.02084368133
-4.44999816883,-3.92289332883,1.16708060566,-5.06311355521
-6.80419259865,-5.18218461018,1.44937185268,-7.33538342909
-8.33838702847,7.59852410846,3.02166309971,-1.95765330296
-6.54258145829,7.04923282709,1.87395434673,-1.23992317684
-9.81677588811,-3.46005845426,-0.663754406243,-8.93219305072
-12.1509703179,-9.51934973562,-1.75146315922,-10.5644629246
-13.7551647478,0.781358983018,-0.779171912196,-5.60673279848
-12.7793591776,-0.327932298344,-1.47688066517,-6.02900267236
-12.5935536074,-2.0072235797,-2.49458941814,-10.2212725462
-5.04774803722,-1.34651486106,-1.92229817112,-8.22354242011
-8.19194246703,-10.2958061424,-1.40000692409,-7.67581229399
-10.4861368969,-3.86509742377,1.70228432293,-6.65808216787
-8.68033132668,-5.18438870513,2.33457556995,-9.13035204175
-7.7045257565,-3.6436799865,0.936866816977,-9.86262191563
-11.2487201863,-11.9229712678,-2.040841936,-14.5648917895
-13.8329146161,-10.2822625492,-0.778550688974,-13.1471616634
-9.50710904596,-6.73155383057,-0.946259441949,-9.82943153726
-5.77130347578,-2.38084511193,-0.713968194923,-6.24170141114
-5.0454979056,2.34986360672,0.728323052099,-3.08397128502
-3.88969233543,0.0905723253527,1.90061429912,-2.7562411589
-2.98388676524,-6.64871895601,-0.257094453853,-1.42851103278
-5.47808119507,2.26198976264,0.405196793174,1.67921909334
2.19772437512,2.53269848128,0.557488040198,1.49694921947
-2.52647005471,-1.81659280008,0.739779287222,-4.22532065441
-2.52066448452,-11.3358840814,0.512070534249,-5.05759052829
0.73514108565,-7.9951753628,-0.555638218731,-3.32986040217
-1.35905334417,-6.03446664416,-2.24334697171,-0.902130276048
1.97675222601,-1.72375792552,-1.18105572468,-0.204400149927
3.84255779619,-1.26304920687,-0.0487644776549,-1.82667002381
3.71836336637,-2.59234048823,0.793526769368,0.951060102316
0.244168936551,-7.6016317696,-1.85418198361,0.408790228437
2.37997450672,2.62907694905,0.768109263419,3.05652035456
4.93578007691,9.52978566769,2.61040051044,6.48425048068
1.24158564708,2.66049438633,0.212691757464,5.0119806068
-1.45260878273,-1.27879689503,-0.605016995509,5.51971073292
-2.76680321256,-7.27808817638,0.167274251515,0.537440859045
-3.51099764238,-0.37737945775,3.14956549854,1.80517098517
1.9048079278,7.37332926089,4.55185674557,6.30290111129
-11.069386502,-0.0959620204594,-0.605852007408,-0.439368762591
-1.09358093184,-2.53525330182,-1.68356076039,-1.21163863647
4.02222463834,2.90545541682,0.588730486637,4.81609148965
11.7880302085,9.89616413546,1.71102173366,8.42382161578
1.1938357787,7.4368728541,-0.756687019311,4.8115517419
0.899641348879,8.89758157274,-0.364395772289,3.45928186802
4.55544691906,2.38829029138,-0.512104525264,2.79701199414
3.24125248924,-3.25100098998,-0.899813278236,1.21474212026
3.31705805942,-0.640292271339,-1.39752203122,2.14247224638
-0.557136370408,6.6604164473,-1.59523078419,3.3402023725
9.10866919978,1.85112516595,-3.45293953717,2.42793249863
9.79447476995,-2.75816611541,-3.44064829014,-1.02433737525
2.85028034014,0.402542603224,0.971642956883,1.67339275087
4.60608591031,-1.52674867813,-1.25606579609,-1.62887712301
7.32189148049,2.47396004051,-1.33377454907,0.678853003112
5.78769705067,3.04466875915,-1.83148330204,0.776583129233
10.7335026209,-6.3246225222,-3.58919205502,1.25431325535
9.48930819103,-5.75391380356,-1.636900808,3.23204338148
2.62511376121,-5.80320508493,-2.96460956097,-2.0102264924
10.5009193314,1.29750363372,-2.10231831394,2.49750363372
-3.38516715115,1.48574854653,-1.72106104652,-5.04650072674
-2.89060374129,-8.8712280546,-3.73348774264,-10.6347275854
-3.48604033142,-8.89820465572,-1.17591443876,-10.192954444
-2.74147692156,-3.33518125684,-0.288341134874,-10.2811813026
-0.896913511708,-4.63215785798,-1.89076783099,-12.1094081613
-5.40235010185,-4.2691344591,-4.05319452711,-11.5776350199
-3.04778669198,-6.23611106023,-2.61562122323,-4.80586187855
-2.15322328212,-2.51308766135,0.211952080655,3.35591126282
4.29134012774,-6.74006426248,-2.55047461546,-0.472315595813
-4.1440964624,-0.147040863609,-6.36290131158,-1.52054245445
3.64046694746,10.0459825353,-4.5653280077,8.63123068692
-4.06496964268,-1.73099406586,-3.07775470382,-1.98699617172
6.46959376719,-1.59797066699,-5.22018139993,3.01477696965
6.88415717705,6.33505273188,-6.88260809605,9.74655011102
4.1387205869,8.04807613076,-5.22503479217,7.54832325238
4.93328399676,7.22109952963,-3.91746148829,8.07009639375
-2.73215259338,-2.19587707149,-7.25988818441,1.96186953511
-2.56758918352,-7.11285367262,-5.20231488052,0.75364267648
1.97697422635,-0.229830273747,-3.78474157664,5.87541581785
-0.428462363794,4.97319312513,-7.30716827276,3.85718895921
1.43610104606,7.476216524,-5.65959496888,7.72896210058
3.07066445592,-1.08076007712,-6.46202166499,4.02073524195
-10.8847721342,-10.2277366783,-12.4844483611,-2.48749161669
-3.01020872435,-5.35471327938,-9.34687505723,1.75428152468
0.794354685509,2.8283101195,-7.52930175335,5.95605466604
0.108918095371,-4.23866648163,-9.02172844946,-0.79217219259
-4.10651849477,-7.66564308276,-10.4141551456,-1.57039905122
4.96804491509,2.21738031612,-2.7665818417,10.8113740901
3.84260832495,2.37040371499,-1.02900853782,10.3831472315
8.33717173481,11.8934271139,-0.0214352339353,15.4149203729
9.35173514467,7.53645051274,-1.15386193006,7.67669351424
1.13629855453,-0.410526088388,-2.14628862617,1.6584666556
-6.60913803561,-0.0475026895147,-1.37871532229,0.520239796972
-5.10457462574,-1.66447929064,-2.04114201841,0.772012938336
0.259988784113,6.82854410823,-2.50356871452,3.6937860797
-3.59544780602,3.99156750711,-4.12599541064,2.06555922107
-2.53088439616,-2.51540909402,-2.59842210676,-1.00266763756
3.88367901369,0.0976143048538,-0.890848802879,1.3291055038
-3.19175757644,2.98063770373,1.106724501,4.25087864517
-2.75719416658,9.5236611026,2.23429780489,7.56265178653
-3.35263075672,6.26668450148,-1.68812889123,6.0144249279
-2.40806734686,-0.760292099651,-1.43055558735,1.61619806927
-7.323503937,-2.14726870078,1.56701771653,-1.52202878937
-4.75894052714,-2.1042453019,0.884591020415,-1.200255648
1.09562288273,6.43877809697,1.1621643243,-0.178482506635
-8.85981370742,3.79180149584,2.62973762818,0.42329063473
-3.89525029756,-7.89517510528,2.43731093206,-2.63493622391
-14.8106868877,-10.8921517064,3.75488423594,-9.77316308254
-7.36612347784,3.32087169246,5.78245753983,-4.18138994117
-7.87156006797,-3.22610490866,3.55003084371,-6.16961679981
-4.93699665811,-3.83308150979,2.10760414759,-8.69784365844
-4.84243324825,-5.27005811092,2.14517745147,-7.06607051708
-8.00786983839,-13.067034712,-2.85724924464,-9.43429737571
-8.55330642853,-8.13401131317,-0.389675940762,-6.19252423434
4.28125698133,5.00901208571,7.14789736312,5.02924890702
8.73582039119,8.78203548458,5.885470667,1.98102204839
2.98038380105,-3.24494111655,4.71304397088,-3.69720481025
-9.08505278909,-6.64191771767,9.28061727476,-6.15543166888
-0.47048937923,4.8911056812,13.4481905786,-0.673658527514
1.23407403063,3.28412908007,8.75576388253,-4.36188538615
7.54863744049,4.81715247895,8.32333718641,-1.55011224478
2.77320085035,-4.60982412218,6.36091049029,-4.72833910341
2.28776426021,-9.2868007233,6.27848379417,-6.98656596205
1.04232767007,-4.66377732443,4.05605709806,-6.55479282068
-2.84310892006,-2.54075392555,3.86363040194,-5.68301967932
-1.0485455102,-2.72773052668,6.13120370582,-7.63124653795
-3.69398210034,-6.85470712781,8.0187770097,-9.79947339659
-3.70941869049,-12.5416837289,5.65635031358,-9.68770025522
-4.68485528063,-4.55866033006,6.76392361747,-2.51592711385
6.37970812924,6.81436306881,10.7514969213,-0.704153972487
8.6742715391,2.49738646768,7.42907022523,-5.09238083112
-0.49116505104,-4.84959013345,6.18664352911,-6.50060768976
1.91339835882,-7.53656673457,8.804216833,-7.99883454839
0.647961768678,0.0364566643038,9.95179013688,-5.15706140702
-2.74747482145,5.66948006318,8.70936344076,-1.78528826566
4.8570885884,12.1925034621,9.45693674464,2.90648487571
9.56165199827,3.40552686092,9.22451004852,2.30825801707
13.4662154081,5.4185502598,11.3320833524,4.76003115844
8.84077881798,11.6115736587,11.5396566563,8.52180429981
13.6353422278,20.6145970575,14.5872299602,13.7735774412
17.8699056377,16.9876204564,13.4748032641,11.7153505825
5.84446904757,8.43064385529,11.8823765679,5.63712372391
9.18903245743,5.29366725417,10.9099498718,5.47889686527
5.90359586728,5.58669065304,9.1475231757,5.03067000664
5.59815927714,7.36971405191,8.03509647958,4.472443148
6.86272268701,4.86273745079,5.85266978346,3.10421628937
10.4872860969,0.885760849662,3.00024308735,0.755989430736
10.4118495067,1.37878424853,6.72781639123,3.7777625721
6.99641291659,5.17180764741,6.53538969511,6.29953571347
14.2509763264,7.20483104629,4.35296299899,6.12130885483
14.5155397363,2.50785444515,3.29053630288,1.8030819962
0.180103146173,-2.20912215597,3.46810960676,0.264855137564
6.19466655603,-3.19609875709,2.60568291064,0.956628278931
7.6992299659,1.38692464177,5.23325621452,4.7084014203
5.81379337575,6.63994804065,5.47082951841,8.84017456166
6.88835678562,5.90297143952,3.19840282229,5.89194770303
-1.32707980452,-2.4840051616,2.68597612617,-0.676279155605
-0.562516394661,-7.22098176273,2.00354943005,-4.27450601424
0.572047015194,-6.01795836386,1.12112273393,-5.10273287287
-4.23338957495,3.25506503502,-2.02130396218,-1.24095973151
-2.32882616507,1.1080884339,-5.1637306583,-0.439186590142
1.43573724478,-0.858888167233,-2.33615735442,-1.84741344877
1.20030065464,4.61413523164,1.60141594946,2.96435969259
-2.2151359355,2.71715863052,-0.851010746654,2.89613283396
-5.11057252564,0.190182029386,-5.10343744277,-2.54209402468
-2.53600911577,0.853205428262,-3.82586413889,-1.89032088331
-1.79144570592,-5.07377117287,-2.69829083501,-4.05854774194
-7.72688229605,-3.46074777399,-2.49071753113,-4.41677460058
-4.99231888619,-3.95772437512,-3.22314422724,-5.06500145921
-4.48775547634,1.02529902375,-3.67557092336,-5.02322831785
-3.14319206648,0.328322422625,-6.66799761948,-3.26145517648
-3.51862865661,-6.1086541785,-6.1204243156,-1.71968203511
-1.11406524675,-7.82563077963,-4.23285101171,-2.98790889375
0.0504981631093,-6.56260738075,-6.61527770783,-2.67613575238
-0.634938427036,-1.88958398187,-7.76770440395,1.03563738898
0.559624982823,1.39343941699,-8.14013110007,3.68741053035
-2.27581160731,-0.103537184128,-6.59255779619,2.79918367171
-6.15124819745,2.77948621475,-7.2749844923,2.01095681308
-2.56668478759,-2.07749038639,-8.42741118842,2.68272995445
1.25787862227,3.8955330125,-8.70983788454,5.12450309581
-5.05755796787,-4.93144358864,-12.3922645807,0.646276237179
-2.832994558,-1.87842018977,-9.96469127677,3.61804937855
-6.11843114815,-11.1953967909,-11.0271179729,-1.52017748009
-10.0238677383,-0.362373392018,-8.58954466901,-0.108404338724
-4.08930432842,1.65065000686,-11.4819713651,0.0233688026419
-9.96474091856,-1.50632659427,-10.1043980612,-2.75485805599
-9.1101775087,-8.9533031954,-9.80682475736,-4.09308491462
-9.85561409884,-7.16027979652,-12.7492514535,-3.60131177326
4.49926598838,7.12113008721,0.483063226737,0.100374273257
-0.87999533624,5.39048975119,-0.0791122276169,-1.80420593183
5.32074333914,13.2698494152,3.26871231802,1.08121386308
3.29148201452,3.76920907915,1.87653686366,-4.72336634201
7.4222206899,-2.28143125687,-0.0456385906909,-7.78794654711
1.88295936528,1.55792840712,0.682185954949,-3.2525267522
1.02369804066,4.2772880711,1.66001050059,-2.30710695729
5.50443671604,1.45664773508,-0.442164953765,-3.65168716238
2.26517539142,-4.92399260094,0.285659591875,-8.47626736747
-2.6340859332,-7.16463293696,0.173484137515,-6.69084757256
-2.85334725783,0.424726727018,0.251308683157,1.83457222235
4.84739141756,4.194086391,1.7491332288,-0.400007982738
-3.70186990706,0.303446054982,-2.79304222556,-5.56458818783
-4.43113123169,-3.70719428104,-6.06521767992,-4.37916839292
-1.0903925563,-4.04783461706,-1.95739313427,-5.85374859801
-1.23965388093,6.34152504693,-3.05956858863,3.5416711969
4.54108479446,8.52088471091,-3.62174404299,5.30709099181
6.38182346984,4.90024437489,-3.22391949735,3.36251078672
3.21256214522,0.509604038867,-3.76609495171,3.02793058163
10.6933008206,-3.01103629715,-3.78827040607,3.72335037654
9.29403949598,-0.83167663317,-3.19044586042,5.39877017144
1.23477817135,5.80768303081,-0.672621314781,7.05418996635
-2.15448315327,1.16704269479,-2.60479676914,4.99960976126
4.55625552211,0.826402358769,-1.1769722235,2.02502955617
3.53699419749,-5.90423797725,-0.149147677857,1.00044935108
0.687732872873,-0.164878313262,-0.741323132213,4.77586914599
