22.5728379361,12.1179723837,9.44851744186,12.1250726744
24.8614595827,16.7493281336,9.00343006088,17.1559007622
32.9400812294,6.55068388345,5.47834267991,11.83672885
28.3687028761,2.28203963331,3.68325529894,8.40755693783
23.8473245228,1.69339538318,2.44816791796,6.74838502563
23.8959461694,1.71475113304,2.35308053699,8.98921311343
12.8945678161,3.5861068829,4.28799315602,9.40004120124
18.6431894628,6.55746263277,3.94290577504,13.540869289
17.6518111095,1.43881838263,0.787818394067,10.6816973768
21.3504327561,0.590174132492,-2.44726898691,8.41252546465
15.7490544028,2.44152988235,-0.952356367882,9.68335355246
24.2576760495,1.25288563221,-2.14744374886,10.9941816403
19.0862976962,-8.15575861792,-4.07253112983,4.73500972807
1.90491934285,-7.42440286806,-4.5776185108,-2.18416218413
13.0735409895,-5.6630471182,-5.99270589178,-2.92333409633
15.9421626362,2.06830863167,-2.59779327275,5.70749399148
11.9907842829,-5.04033561847,-2.18288065373,7.16832207928
9.36940592956,-7.89897986861,-5.4779680347,3.19915016709
-4.34197242377,-3.11762411875,-4.34305541567,-1.54002174511
-10.9733507771,0.00373163111362,-3.16814279665,-3.1691936573
-4.65472913042,3.78508738098,-3.62323017762,1.5816344305
-8.64610748374,-0.75355686916,-4.7483175586,-1.40753748169
-6.26748583706,2.2777988807,-3.77340493957,-1.76670939389
1.16113580961,-0.990845369433,-5.47849232055,0.0041186939161
-7.54024254371,1.58051038043,-6.43357970152,-2.17505321828
-11.261620897,-6.57813386971,-9.20866708249,-7.33422513047
-1.73299925036,-6.04677811985,-9.57375446347,-5.07339704267
-3.82437760368,-4.05542236998,-6.96884184444,-2.68256895487
-5.575755957,-1.35406662012,-5.07392922542,-0.481740867062
2.05286568967,0.0472891297431,-4.65901660639,-0.570912779258
1.46148733635,6.28864487961,-3.26410398736,1.73991530855
-5.82989101698,1.50000062947,-2.23919136834,-0.159256603647
-1.4612693703,-2.00864362067,-1.39427874931,-0.798428515844
0.0873522763759,1.34271212919,-0.649366130287,0.122399571961
-2.20402607695,3.52406787905,-1.16445351126,0.443227659764
-1.29540443027,7.10542362892,3.76045910776,1.67405574757
-5.5767827836,-0.543220621221,2.43537172679,-4.01511616462
-4.82816113692,1.10813512864,0.730284345816,-5.22428807682
-7.74953949024,1.5994908785,0.925196964842,-4.36345998902
-10.2609178436,3.76084662837,2.01010958387,-3.51263190121
-18.7922961969,4.16220237823,3.14502220289,-4.47180381341
-24.3636745502,-0.936441871909,1.92993482192,-8.5809757256
-16.1250529035,-1.36508612204,1.69484744095,-9.9401476378
-17.2764312569,-1.18373037218,1.19976005997,-10.19931955
-12.6178096102,-1.25237462232,0.784672678997,-7.88849146219
-6.59918796351,1.86898112754,0.999585298023,-6.27766337439
-12.3705663168,-0.189663122594,0.834497917049,-5.98683528658
-17.6819446702,0.391692627265,1.18941053607,-6.87600719878
-21.7633230235,-0.436951622869,-0.0556768448996,-9.28517911097
-20.1847013768,0.814404126992,0.209235774127,-8.94435102317
-16.9160797301,-0.824240123144,0.294148393152,-7.55352293536
-16.7274580834,1.78711562672,0.799061012178,-5.08269484756
-15.2188364368,3.84847137658,-1.2260263688,-2.24186675975
-14.0902147901,2.49982712644,-0.49111374977,-0.381038671949
-8.40159314342,2.18118287631,-0.886201130745,-1.14021058414
-9.17297149674,5.89253862617,0.448711488281,-0.889382496342
-8.91434985007,5.06389437603,1.47362410731,1.51144559146
-10.1557282034,9.86525012589,2.89853672633,3.37227367927
-4.23710655671,7.98660587575,1.72344934536,-0.556898232928
-11.86848491,8.18796162562,0.598361964386,2.53392985488
-7.67986326336,8.78931737548,2.02327458341,4.70475794268
-8.45124161668,8.49067312535,3.43818720244,5.42558603049
-9.38261997001,5.77202887521,2.07309982146,2.18641411829
-9.10399832333,3.59338462507,-0.351987559512,2.1272422061
-1.98537667665,7.70474037493,1.65292505951,5.0380702939
-11.96675503,-0.273903875204,-0.232162321459,0.638898381705
-3.0781333833,2.69745187466,2.22275029757,3.92972646951
-1.16951173663,-0.351192375478,2.05766291659,-0.809445442686
4.93910991005,0.430163374382,2.24257553562,2.26138264512
-11.7022684433,3.04151912424,3.30748815464,2.89221073292
-6.0136467966,2.08287487411,3.28240077367,-0.346961179272
-5.30502514992,4.34423062397,3.8973133927,0.373866908531
3.73359649676,1.78558637383,6.19222601172,4.80469499634
4.82221814343,2.5469421237,6.16713863075,4.85552308414
4.11083979011,0.378297873558,5.17205124977,-0.923648828055
3.38946143679,-5.21034637658,4.9669638688,-4.77282074025
-8.74191691654,-3.08899062672,5.06187648782,-3.87199265245
-8.48329526986,-2.11763487686,5.77678910685,-2.39116456464
-12.0646736232,-0.686279126992,5.92170172588,-0.420336476838
-12.4560519765,-1.89492337713,2.6066143449,-0.899508389033
-13.6974303298,-1.51356762727,2.46152696393,-3.33868030123
-3.47880868315,-8.76221187741,2.31643958295,-8.89785221342
-8.83018703648,-4.22085612754,6.78135220198,-4.64702412562
3.2284346102,-12.5195003777,5.45626482101,-8.28619603781
-11.9629437431,-16.2781446278,0.421177440031,-13.95536795
-19.3643220965,-13.176788878,0.796090059057,-13.4845398622
-13.4357004498,-19.4954331281,0.181002678083,-18.7037117744
-10.0870788031,-21.5840773782,-1.57408470289,-21.7228836866
-5.40845715642,-16.1727216284,-1.21917208387,-14.6720555988
-10.9898355097,-11.9713658785,0.15574053516,-10.871227511
-3.82121386307,-16.0200101286,1.58065315419,-12.0903994232
-5.33259221639,-15.3986543788,2.82556577321,-9.55957133538
-5.03397056972,-17.8772986289,2.21047839224,-14.0987432476
-4.39534892304,-17.1659428791,-0.794608988735,-13.3479151598
1.49327272363,-17.1945871292,-1.48969636971,-12.497087072
-5.44810562969,-16.2132313793,-2.35478375068,-11.6662589842
-6.48948398301,-17.0418756295,-1.77987113166,-11.2854308964
-6.45086233634,-14.9905198796,-2.05495851263,-9.89460280855
-4.61224068966,-9.62916412974,-1.86004589361,-3.38377472075
2.24638095702,-12.9978083799,-3.25513327458,-10.4129466329
4.2250026037,-10.72645263,-2.57022065556,-9.38211854514
3.83362425037,-7.57509688015,-0.905308036529,-4.37129045733
-3.53775410295,-12.1637411303,-1.9203954175,-7.03046236953
-4.16913245628,-7.64238538043,-1.11548279848,-4.55963428172
-7.6705108096,-6.04102963057,-3.74057017945,-4.84880619392
11.3381108371,-4.47967388071,-2.16565756043,-2.91797810612
-6.17326751625,-3.15831813084,-1.1907449414,-7.83715001831
2.79535413043,-2.73696238098,-2.02583232237,-5.74632193051
3.1039757771,-4.90560663111,-0.930919703348,-2.8654938427
6.78259742378,1.81574911875,-0.896007084323,-0.264665754898
7.77121907046,3.80710486861,-0.661094465297,1.37616233291
7.13984071714,3.62846061847,-0.64618184627,6.11699042071
11.8184623638,2.78981636833,-1.08126922725,3.83781850851
9.07708401049,6.59117211819,-1.51635660822,6.12864659632
17.0457056572,9.40252786806,-3.40144398919,10.2394746841
13.1943273038,14.5438836179,-1.43653137017,13.4703027719
19.6429489505,16.7352393678,1.54838124886,19.8411308597
29.6415705972,16.1465951176,3.48329386788,21.4819589475
25.0501922439,18.0279508675,4.14820648691,20.9727870353
7.71881389055,15.6493066174,-2.36688089406,15.9936151231
21.3574355372,16.1206623672,-2.37196827504,15.484443211
18.5560571839,13.9020181171,-2.82705565601,14.5252712988
16.9146788306,16.763373867,-2.54214303699,19.8660993866
16.4533004772,14.2547296168,-1.41723041796,14.5069274744
11.2119221239,10.7260853667,-3.77231779894,12.7777555622
12.8305437706,12.9974411165,-3.99740517991,17.08858365
12.5291654173,14.2087968664,-0.382492560883,11.8694117378
4.31778706396,11.8101526163,-2.22757994186,10.1702398256
5.6110574128,8.03703488373,7.29926235465,-1.19765988372
-1.52986352086,8.4933340391,6.758812603,-0.429200180832
7.17921554547,7.11963319448,4.23836285135,-0.500740477939
9.73829461181,8.04593234985,5.0779130997,2.21771922495
3.84737367814,2.60223150523,3.50746334805,-0.183821072153
9.69645274447,-1.9714693394,1.70701359641,-2.67536136926
7.24553181081,4.13482981598,4.39656384476,-3.55690166637
-2.10538912286,3.12112897135,3.04611409311,-4.28844196347
-3.54631005652,-6.92257187328,-2.12433565854,-10.1099822606
0.0027690098068,-11.0262727179,-1.80478541019,-14.5215225577
0.661848076143,-10.5299735625,-2.07523516183,-14.5730628548
-0.0690728575246,-9.08367440715,-2.58568491348,-14.6746031519
4.93000620881,-5.83737525178,-1.27613466513,-11.626143449
-2.18091472486,-7.7510760964,-1.93658441678,-13.7076837461
1.64816434148,-6.39477694103,-4.04703416843,-11.8892240432
0.43724340781,-3.27847778565,-2.79748392007,-5.55076434033
7.23632247415,3.70782136972,-1.75793367172,-1.73230463743
2.22540154048,4.92412052509,-1.23838342337,-2.95384493454
1.18448060681,-3.44958031953,-3.54883317502,-6.44538523165
-6.04644032685,-8.33328116416,-5.18928292667,-10.4169255288
-4.01736126052,-4.65698200878,-4.01973267831,-7.29846582586
0.661717805815,-0.650682853407,-2.80018242996,-3.44000612297
-0.749203127853,-4.65438369803,-2.14063218161,-5.71154642007
0.129875938481,-4.73808454266,-4.67108193326,-5.62308671718
-7.45104499518,-8.73178538728,-6.09153168491,-5.81462701429
-7.13196592885,-1.92548623191,-1.92198143655,-0.346167311392
-1.21288686252,-2.62918707654,-3.1424311882,-2.8177076085
8.24619220382,-3.20288792116,-3.80288093985,-1.2192479056
-8.92472872985,-7.23658876579,-4.6133306915,-1.63078820271
-8.21564966352,-5.01028961041,-4.02378044315,0.547671500181
-10.6265705972,-5.13399045504,-0.724230194794,-0.353868796925
-4.59749153085,0.892308700335,-0.284679946441,2.60459090597
-5.96841246451,-5.11139214429,-3.69512969809,2.42305060886
-2.06933339818,-5.97509298892,-2.69557944974,-1.22848968825
5.62974566815,-6.27879383354,-3.78602920139,0.339970014647
1.84882473449,0.767505321834,-2.89647895303,4.95842971754
6.16790380082,-0.516195522796,-3.33692870468,3.34688942043
11.5069828672,3.59010363258,-3.43737845633,5.87534912333
0.586061933493,0.826402787956,-2.81782820798,5.91380882622
5.96514099982,-0.307298056669,-2.80827795963,5.61226852911
-3.16577993385,4.2490010987,-2.65872771127,8.60072823201
-2.94670086751,3.58530025408,-6.13917746292,6.9391879349
6.13237819882,8.08159940945,-4.66962721457,8.91764763779
0.0514572651591,7.82789856483,-4.70007696622,9.46610734069
-5.03946366851,3.7941977202,-3.84052671787,9.29456704358
9.45961539783,2.24049687558,-3.07097646951,9.82302674648
0.468694464158,8.59679603095,-3.80142622116,11.3314864494
1.4577735305,4.34309518633,-3.98187597281,10.3199461523
8.80685259683,4.7293943417,-1.31232572446,9.79840585515
-1.68406833684,6.14569349707,-1.21277547611,7.70686555805
-3.19498927051,6.76199265245,0.00677477224599,8.03532526094
-3.67591020417,7.61829180782,-1.0536749794,5.20378496383
3.04316886216,6.3545909632,0.0958752689494,8.77224466673
2.7922479285,11.5108901186,5.0954255173,11.6707043696
-7.18867300517,3.62718927395,0.654975765654,6.24916407251
-0.669593938837,-2.28651157068,-2.75547398599,7.21762377541
1.6894851275,-2.30021241531,-2.13592373764,3.2360834783
2.43856419383,-2.73391325993,0.31362651071,1.16454318119
-5.37235673984,-4.73761410456,-2.84682324094,-2.10699711591
-4.9332776735,-4.16131494919,-2.85727299259,-0.85853741302
-0.614198607167,1.23498420619,1.69227725577,3.97992228987
0.00488045916791,1.78128336157,3.71182750412,4.45838199277
0.603959525499,1.13758251694,3.57137775247,5.43684169566
6.22303859184,1.44388167231,3.60092800082,6.62530139855
4.04211765817,1.41018082769,3.30047824917,7.69376110145
3.70119672451,6.42647998306,2.22002849753,9.80222080434
-3.50972420917,9.96277913844,3.76957874588,7.23068050723
-0.520645142828,8.65907829381,3.75912899423,8.26914021013
-0.601566076497,8.60537744918,5.51867924258,9.70759991302
-2.64248701017,4.59167660456,6.50822949093,7.33605961591
-3.45340794383,1.84797575993,6.34777973929,3.05451931881
-6.7343288775,-2.49572508469,5.17732998764,-1.6070209783
1.03475018884,-2.48942592932,4.42688023599,2.45143872459
-3.50617074483,-1.83312677394,5.64643048434,3.37989842749
-4.21709167849,-0.816827618568,8.42598073269,0.418358130379
-4.41801261216,-0.290528463192,8.23553098105,2.26681783327
0.331066454175,0.565770692181,9.0550812294,6.50527753617
7.51014552051,5.47206984755,10.2546314777,9.95373723906
-3.85077541316,7.96836900293,9.4541817261,8.83219694195
5.01830365318,2.0546681583,7.81373197445,8.33065664485
-0.802617280493,4.14096731368,6.28328222281,6.61911634774
-1.08353821416,5.58726646905,7.10283247116,5.15757605063
2.79554085218,3.73356562442,7.36238271951,4.76603575353
0.214619918512,6.6298647798,8.80193296786,6.59449545642
-4.82630101516,2.01616393518,8.28148321621,3.60295515931
-3.64722194882,3.01246309055,8.69103346457,4.82141486221
-11.0381428825,5.94876224592,9.26058371292,2.2698745651
-14.0590638162,2.4950614013,7.49013396127,-0.981665732008
-15.9999847498,1.70136055668,4.65968420962,-3.09320602911
-1.94090568349,-0.572340287952,5.91923445797,-2.09474632622
2.17817338285,-6.68604113258,4.30878470633,-4.72628662333
-7.64274755082,-3.5897419772,3.48833495468,-2.98782692043
-13.2436684845,-4.47344282183,0.70788520303,-4.22936721754
-8.64458941815,-4.57714366645,1.02743545138,-3.97090751465
-1.03551035182,-5.23084451108,1.06698569973,-3.60244781175
6.76356871452,-9.60454535571,-1.89346405191,-8.39398810886
2.90264778085,-6.32824620033,-3.60391380356,-5.07552840597
-3.15827315281,-2.30194704495,-1.24436355521,-1.52706870307
-2.60919408648,-1.81564788958,1.40518669314,-3.00860900018
3.29988497985,-3.77934873421,0.414736941493,-6.62014929729
1.81896404619,-4.50304957883,0.694287189845,-8.44168959439
-4.61195688748,-6.41675042346,1.0138374382,-8.7832298915
-6.56287782115,-1.98045126809,1.47338768655,-6.60477018861
-4.92379875481,0.755847887289,0.252937934902,-7.01631048571
-8.66471968848,-7.38785295734,-4.95751181675,-11.4978507828
-5.22564062214,-3.89155380196,-3.7879615684,-7.07939107993
-6.02656155581,0.834745353412,-2.07841132004,-4.01093137704
6.03251751052,3.04104450879,-0.63886107169,0.297528325858
-0.248403423142,-0.682656335841,0.960689176662,-3.15401197125
0.540675643191,-5.81635718047,-2.95976057499,-10.6555522684
0.129754709524,1.16994197491,-4.53021032663,-8.09709256546
-6.47116622414,-0.453758869717,-8.01066007828,-7.78863286257
1.40791284219,-1.24745971434,-8.89110982993,-3.66017315967
3.18699190853,6.02883944103,-5.88155958158,4.59828654322
-1.49392902514,0.585138596405,-8.57200933323,-5.69325375389
3.05515004119,1.31143775178,-5.41245908487,-0.524794050994
8.70422910753,5.09773690716,-4.08290883652,2.6236656519
0.913308173862,-6.20596393747,-7.22335858817,-7.98787464521
-0.617612759805,-3.0596647821,-4.52380833982,-3.47941494231
8.15146630653,3.71663437328,-1.60425809147,3.03904476058
15.8605453729,-4.00706647135,-3.92470784311,0.477504463472
5.5396244392,-3.70076731597,-5.98515759476,-4.33403583364
3.47870350553,1.8955318394,-2.84560734641,-1.63557613074
8.18778257187,-5.22816900523,-3.52605709806,-3.41711642785
4.7068616382,0.168130150152,-3.24650684971,-2.10865672495
1.32594070453,-4.02557069447,-3.39695660135,-4.11019702206
10.4150197709,-0.809271539099,-2.417406353,0.358262680831
14.1540988372,5.09702761627,1.01214389535,2.93672238373
-0.928999999993,-6.31538095238,0.0296666666636,-4.95452380953
-6.90820168066,-5.51456022408,0.805551820726,-2.06247619048
-0.907403361336,-3.16373949579,-0.178563025212,0.709571428566
-0.366605042011,-0.262918767505,0.637322128849,0.981619047616
0.25419327732,1.65790196079,-0.126792717089,-0.396333333338
2.00499159664,0.158722689081,-0.380907563028,0.325714285711
3.61578991597,-1.74045658263,-2.64502240897,-2.15223809524
-3.8334117647,3.24036414566,0.430862745096,2.62980952381
4.55738655463,7.22118487395,2.94674789916,6.77185714285
0.718184873953,1.99200560225,-0.63736694678,1.3239047619
-0.771016806721,-1.25717366947,-0.841481792719,-1.62404761905
-0.58021848739,-5.00635294117,-2.18559663866,-6.662
-6.02942016806,-5.52553221288,-1.99971148459,-5.78995238096
-4.94862184874,1.42528851541,-2.16382633053,-0.597904761906
1.57217647059,3.1661092437,1.27205882353,0.654142857142
3.30297478992,1.53692997199,0.95794397759,-1.79380952381
4.71377310924,4.40775070028,1.08382913165,1.87823809524
-1.26542857143,-0.0814285714223,0.269714285713,0.160285714284
3.7753697479,5.12939215686,0.395599439775,2.08233333333
1.65616806723,3.16021288516,-0.418515406163,3.45438095238
-0.0130336134425,-1.62896638655,-1.2026302521,-0.723571428571
2.72776470588,2.82185434174,1.51325490196,2.45847619048
0.788563025209,2.90267507003,0.929140056022,2.13052380952
3.63936134454,4.11349579832,2.91502521008,3.83257142857
7.07015966386,5.58431652662,3.33091036415,4.86461904762
1.82095798319,0.485137254906,1.06679551821,2.65666666667
-5.00824369748,-3.53404201681,-1.44731932773,1.91871428572
3.20255462185,-1.77322128851,-1.43143417367,4.01076190476
2.56335294117,-0.322400560221,-1.21554901961,2.24280952381
-0.5958487395,4.47842016807,0.0503361344545,2.42485714286
-3.85505042017,0.279240896361,0.586221288517,-1.67309523809
-4.67425210085,-4.52993837535,2.12210644258,-4.33104761905
-4.30345378152,-1.30911764706,-0.15200840336,-3.989
-2.93265546219,-6.40829691877,-1.6561232493,-6.06695238095
