-3.39768531976,-13.9124127907,-4.61910610465,-9.21936773256
-2.54661325764,-13.9826368511,-4.02145778017,-6.5856498352
0.964458804487,-17.3328609115,-5.35380945569,-8.88193193783
-3.65446913339,-8.97308497184,-4.43616113121,-6.69821404047
-3.87339707127,-8.12330903222,-5.22851280672,-10.1244961431
0.597674990851,-2.6435330926,-2.90086448224,-3.63077824574
6.05874705298,-9.21375715299,-4.45321615776,-3.70706034838
3.0698191151,-6.04398121337,-4.46556783327,-0.873342451019
-2.31910882278,-5.77420527375,-4.47791950879,-1.19962455366
5.08196323934,-0.274429334135,0.869728815692,1.54409334371
6.81303530146,-1.34465339452,0.807377140174,1.66781124107
3.32410736359,-1.7948774549,-1.12497453534,4.63152913843
6.37517942571,-0.385101515283,-3.03732621086,4.4952470358
13.8662514878,2.20467442433,-1.77967788638,1.30896493316
18.89732355,-0.805549636047,-1.68202956189,0.742682830523
7.96839561208,0.0442263035693,-1.34438123741,3.70640072789
4.3994676742,0.534002243188,-0.59673291293,-2.06988137475
4.16053973632,-0.646221817198,0.750915411553,-2.90616347739
-2.20838820156,-7.39644587758,-0.401436263964,-4.95244558002
4.65268386056,1.11333006204,0.306212060519,2.95127231734
3.00375592269,1.63310600165,1.313860385,4.9349902147
0.954827984806,0.132881941274,0.721508709484,-1.60129188794
4.24590004693,-2.38734211911,-1.95084296603,-2.11757399057
2.43697210905,2.9524338205,-0.91319464155,2.47614390679
0.968044171175,2.10220976012,-0.775546317068,1.90986180416
4.47911623329,3.78198569974,-1.32789799258,3.97357970152
5.24018829542,-0.648238360642,-0.620249668103,4.21729759888
4.04126035754,-2.96846242102,-2.16260134362,3.18101549625
4.56233241966,-3.54868648141,-2.50495301914,1.98473339361
-3.39659551821,-5.13891054179,-2.85730469465,-3.05154870903
-0.0855234560913,-4.59913460217,-2.64965637017,-3.30783081167
5.68554860603,-4.66935866256,-1.03200804569,0.345887085698
2.27662066815,-7.41958272294,2.15564027879,-1.71039501694
-8.47230726973,-6.04980678332,-2.82671139672,-5.45667711958
-11.8012352076,-2.4800308437,-4.84906307224,-7.34295922221
-11.6601631455,-2.32025490409,-0.0314147477575,-8.82924132485
-18.8990910834,-0.400478964471,1.51623357673,-1.68552342749
-17.3280190212,-3.06070302485,-0.576118098792,-7.81180553012
-14.9769469591,-6.00092708524,0.0615302256911,-9.02808763276
-12.555874897,-2.52115114562,0.559178550173,-4.0343697354
-11.3948028349,-1.561375206,1.50682687466,-4.76065183803
-17.3337307727,5.68840073362,4.59447519914,3.03306605933
-8.72265871062,5.36817667323,3.19212352362,5.48678395669
-7.38158664851,5.86795261285,1.2997718481,0.940501854055
-11.1105145864,9.14772855247,2.71742017259,1.64421975142
-9.67944252426,7.31750449209,4.22506849707,1.54793764878
-8.99837046214,9.6872804317,6.47271682155,5.78165554614
-10.0672984,6.55705637132,2.75036514604,-2.04462655649
-9.75622633789,10.2668323109,3.62801347052,2.32909134087
-9.83515427577,14.7666082506,6.535661795,8.40280923823
-1.58408221365,6.96638419017,3.91331011948,0.436527135596
-10.3630101515,7.43616012979,3.74095844397,0.87024503296
-3.6519380894,9.39593606941,4.77860676845,3.34396293032
-2.53086602728,8.88571200902,3.17625509293,7.48768082769
-6.90979396516,5.37548794864,2.17390341742,2.21139872505
-5.76872190304,5.62526388825,3.2815517419,3.31511662241
-5.58764984091,3.25503982787,1.36920006638,-0.711165480225
-3.88657777879,3.29481576749,1.44684839086,2.87255241714
4.48449428333,8.41459170711,2.79449671535,6.3062703145
1.49556634545,6.60436764673,4.56214503983,7.39998821187
3.83663840757,9.53414358634,4.14979336431,9.44370610923
3.3577104697,11.683919526,5.04744168879,11.5174240066
10.5987825318,5.22369546558,3.36509001328,6.14114190396
8.29985459394,4.1334714052,1.87273833776,5.10485980132
6.03092665606,9.56324734481,5.10038666224,7.37857769868
7.10199871818,8.13302328443,5.86803498672,6.43229559604
4.94307078031,6.30279922405,4.80568331121,8.07601349341
5.28414284243,8.55257516366,5.16333163569,7.56973139077
10.6052149046,7.57235110328,5.33097996017,6.44344928813
7.67628696667,7.4621270429,2.07862828466,6.9571671855
6.3173590288,6.81190298252,2.59627660914,4.06088508286
7.77843109092,3.86167892213,4.33392493362,2.66460298022
9.54950315304,5.45145486175,4.0515732581,5.62832087759
2.24057521516,4.73123080137,2.39922158259,2.45203877495
7.07164727728,3.10100674099,1.13686990707,-1.33424332769
8.3927193394,1.6307826806,-1.31548176845,0.909474569675
0.553791401529,0.020558620221,0.232166556035,0.56319246704
-0.91513653635,0.400334559836,0.739814880518,4.1969103644
1.83593552577,-1.27988950055,1.797463205,-0.00937173823513
6.44700758789,-0.130113560928,1.10511152948,-3.95565384087
6.22807965002,-0.600337621312,0.132759853966,-4.50193594351
-2.69084828786,-1.2305616817,1.24040817845,-2.02821804615
1.76022377426,-1.70078574208,1.91805650293,-0.984500148781
10.4812958364,-0.331009802459,2.43570482741,0.0792177485819
3.00236789851,-3.48123386284,-2.5166468481,-0.847064354055
-6.69656003937,-2.46145792322,-2.68899852362,-7.22334645669
-2.80548797725,-2.07168198361,-0.841350199138,-9.14962855933
2.49558408487,-2.43190604399,-2.46370187466,-4.51591066196
-3.15334385301,-3.79213010438,-2.43605355017,-3.9221927646
-9.98227179088,-1.65235416476,-1.82840522569,-5.13847486724
-2.90119972876,3.10742177486,-1.37075690121,-2.66475696988
3.89987233336,1.29719771448,-1.34310857672,-1.91103907251
7.77094439548,1.18697365409,-3.72546025224,-1.08732117515
-0.787983542396,5.43674959371,0.332188072241,1.24639672221
0.223088519728,3.96652553333,-0.670163603276,-2.28988538042
5.50416058185,3.96630147295,-1.59251527879,1.83383251694
7.65523264397,3.26607741256,-0.944866954311,3.3475504143
9.98630470609,2.93585335218,-0.147218629828,1.68126831166
11.5273767682,2.3956292918,-0.569570305345,2.23498620903
9.04844883034,4.90540523141,-1.43192198086,3.91870410639
8.60952089246,5.59518117103,0.615726343621,5.95242200375
3.52059295458,1.48495711065,0.423374668103,4.46613990112
5.29166501671,-0.955266949735,-1.06897700741,-2.34014220152
0.012737078825,-4.72549101011,-2.09132868293,-3.46642430416
7.48380914095,-7.4057150705,-2.57368035845,-2.80270640679
5.65488120307,-7.61593913088,-2.63603203397,0.23101149057
2.70595326519,-7.07616319126,-2.17838370948,2.00472938793
-9.78297467269,-8.81638725165,-3.530735385,-4.3915527147
0.48809738944,-6.13661131203,-3.32308706052,-3.34783481734
-0.160830548441,-0.906835372411,-0.165438736035,0.905883080024
2.59024151368,-2.0670594328,-1.69779041155,-2.09039902261
-0.558686424196,-2.48728349318,-2.47014208707,-3.26668112525
0.882385637928,-2.06750755356,-2.62249376259,-2.98296322789
-9.35654229995,-3.49773161394,-2.2348454381,-3.56924533052
-12.3654702378,-3.38795567433,0.392802886378,-3.17552743316
-2.10439817571,-3.06817973471,-1.40954878914,-2.0518095358
3.91667388642,-5.66840379509,-1.82190046466,-2.81809163843
-2.49225405146,-9.10862785547,-1.90425214017,-3.83437374107
-3.90118198934,-10.4188519159,-3.77660381569,-3.44065584371
-2.47010992722,-11.5890759762,-4.43895549121,-5.65693794634
-2.45903786509,-10.9993000366,-5.26130716672,-4.86322004898
-5.80796580297,-9.81952409701,-3.19365884224,-3.79950215162
-0.886893740852,-5.78974815739,-2.75601051776,-2.64578425426
1.12417832127,-2.16997221777,-1.42836219328,-0.462066356891
2.6552503834,1.46980372184,0.969286131206,5.72165154047
-10.0236775545,2.36957966146,1.35693445569,4.19536943783
-10.5726054924,-1.14064439892,1.65458278017,-2.5409126648
-7.93153343024,0.529131540698,3.60223110465,-1.38719476744
-9.65990915698,-4.85259811045,-4.80980377907,-1.82916424419
-1.96728263482,-6.40922550241,-4.6331570168,-2.09743281908
-2.69465611266,-3.99585289438,-3.53651025453,-3.94570139398
-12.5520295905,-4.31248028634,-3.66986349227,-5.75396996887
-7.65940306835,-6.9191076783,-2.59321673,-8.03223854377
-3.78677654619,-6.07573507026,-2.50656996773,-6.56050711866
-9.86415002403,-3.06236246222,-3.10992320546,-5.03877569356
-0.521523501877,-5.52898985418,-4.09327644319,-4.38704426845
-3.59889697972,-8.12561724614,-3.77662968092,-6.06531284335
-6.14627045756,-4.31224463811,-4.62998291865,-1.79358141824
-4.60364393541,-5.56887203007,-5.43333615638,-1.12184999314
4.04898258675,-2.95549942203,-3.35668939411,-3.87011856803
4.93160910891,-1.95212681399,-1.07004263185,-2.25838714293
1.93423563106,-4.12875420595,1.16660413042,-2.59665571782
2.36686215322,-2.34538159791,1.79325089269,-1.45492429272
1.15948867538,-3.78200898987,1.40989765496,-1.45319286761
-1.36788480246,-4.25863638184,-0.843455582771,-1.6114614425
5.47474171969,-4.3152637738,-2.1468088205,-2.8097300174
1.47736824185,-8.32189116576,-3.84016205823,-7.52799859229
-3.73000523599,-6.82851855772,-3.06351529596,-7.50626716719
-7.76737871383,-4.57514594968,0.423131466305,-6.58453574208
-9.24475219168,-6.01177334164,-1.18022177143,-8.01280431698
-5.75212566952,-2.5784007336,-0.313575009158,-6.32107289187
-1.94949914737,-0.595028125565,1.52307175311,-4.56934146677
-7.15687262521,0.0683444824754,1.22971851538,-2.35761004166
1.42575389695,2.55171709051,0.186365277649,1.33412138344
-3.73161958089,0.525089698553,-1.13698796008,-2.51414719145
-10.8589930587,0.988462306592,-0.980341197813,-1.21241576635
-5.19636653658,2.01183491463,1.16630556446,4.57931565876
1.25625998558,-0.624792477334,1.97295232672,0.571047083864
7.85888650774,1.03858013071,-0.600400911007,1.74277850897
-5.45848697011,2.35195273874,-2.63375414874,0.954509934076
5.31413955205,2.41532534678,-2.29710738647,3.12624135918
-2.4832339258,-0.361302045178,-1.6004606242,2.18797278428
6.38939259636,-1.88792943714,-1.74381386193,0.649704209391
11.2920191185,-2.0945568291,-2.02716709966,-1.5385643655
3.49464564068,1.11881577894,-2.23052033739,0.293167059601
3.91727216283,0.442188386976,-2.74387357512,4.29489848471
5.75989868499,-5.69443900498,-2.40722681286,2.08662990981
2.61252520715,-3.77106639694,-0.840580050586,-0.771638665083
7.6151517293,-1.96769378891,-2.05393328832,1.48009276002
-1.99222174854,-5.68432118087,-4.75728652605,-8.16817581487
12.0504047736,-3.81094857283,-1.02063976378,-6.29644438977
7.15303129577,-1.29757596479,2.08600699849,-0.614712964662
5.86565781793,1.64579664325,3.69265376076,3.38701846044
9.59828434009,1.68916925129,0.209300523026,-0.32125011445
16.1009108622,1.52254185933,-0.794052714705,2.83048131065
4.8835373844,3.66591446736,0.722594047564,1.13221273576
14.5461639066,-2.1907129246,-1.45075919017,1.09394416086
10.1687904287,-1.26734031656,-0.884112427899,1.58567558597
6.64141695088,-1.53396770852,0.12253433437,0.417407011075
7.84404347303,2.07940489952,0.989181096639,4.84913843618
9.65666999519,5.02277750756,1.03582785891,6.50086986129
9.61929651734,6.6461501156,1.64247462118,4.18260128639
20.6819230395,12.2295227236,3.78912138345,10.3743327115
8.64454956166,9.76289533167,4.52576814572,7.9360641366
4.72717608382,12.1062679397,4.77241490798,4.04779556171
-3.22019739403,14.2496405478,4.72906167025,5.16952698681
6.68242912813,11.8230131558,4.34570843252,7.87125841192
0.025055650287,8.53638576383,3.27235519479,5.39298983702
6.99768217244,11.8797583719,3.40900195706,12.4147212621
3.4703086946,8.6531309799,3.24564871933,10.0264526872
13.7529352168,10.1265035879,5.2422954816,12.3281841123
5.48556173892,11.009876196,8.92894224387,12.2999155374
1.95818826107,10.583248804,9.19558900613,12.7316469625
0.510814783232,10.6866214121,7.6322357684,9.91337838766
10.6334413054,14.1499940201,7.91888253067,13.3851098128
7.06606782755,17.0033666281,7.31552929294,15.3468412379
13.9086943497,13.0867392362,6.96217605521,12.798572663
14.3813208719,14.2201118442,7.38882281748,15.2803040881
9.39394739402,14.3434844523,9.80546957975,15.5320355132
-2.31342608383,10.0068570603,8.28211634202,6.28376693829
-5.66079956167,6.38022966833,7.24876310429,1.49549836339
-8.80817303951,5.05360227637,7.70540986655,1.1672297885
-12.8755465174,5.9369748844,6.47205662882,4.6089612136
-12.6329199952,5.46034749244,5.26870339109,5.05069263871
-9.21029347304,4.47372010048,4.19535015336,4.03242406381
-4.32766695089,1.20709270852,1.22199691563,3.67415548892
-13.6950404287,-5.92953468344,-0.591356322102,-1.71411308597
-7.52241390657,-2.4961620754,2.20529044017,-0.75238166087
-0.819787384415,1.81721053264,3.41193720244,2.73934976424
-12.0771608623,-1.20941685932,2.1785839647,-2.44891881066
-4.4545343401,-1.37604425128,1.71523072697,-2.51718738555
-6.62190781794,0.717328356754,2.85187748924,-0.365455960447
-10.8592812958,1.03070096479,4.32852425151,1.24627546466
-3.37665477363,-0.165926427166,0.52517101378,-0.541993110237
-5.53402825147,1.84744618087,-0.11818222395,0.059738314867
1.01859827069,3.33081878891,-0.191535461682,2.14146973997
-5.12877520716,1.56419139695,-0.674888699413,2.99320116508
-10.026148685,1.33756400499,0.421758062856,0.314932590183
-8.18352216285,-8.16906338697,-2.22159517488,-4.96333598471
-10.4608956407,-9.13569077893,-3.44494841261,-9.99160455961
-9.18826911853,-5.8823181709,-3.04830165034,-6.4098731345
-6.01564259637,-4.29894556286,-1.17165488807,-6.2781417094
-7.52301607422,-7.14557295482,1.6449918742,-5.33641028429
-15.4603895521,-10.1222003468,-0.718361363532,-12.2446788592
-17.5577630299,-7.93882773874,-6.31171460126,-14.3629474341
-13.6651365077,-2.0454551307,-3.56506783899,-5.27121600897
-14.4225099856,-2.76208252267,-1.07842107673,-6.31948458387
-11.3098834634,-8.08870991463,-4.54177431446,-8.70775315876
-6.48725694128,-9.41533730659,-7.38512755219,-9.66602173366
-2.54463041912,-8.50196469855,-7.82848078992,-11.4542903086
-6.75200389696,0.851407909489,-1.84183402765,-5.28255888345
1.4406226252,2.48478051753,-1.07518726538,-1.44082745834
3.43324914735,1.21815312557,-1.31854050311,-0.229096033238
-0.144124330487,2.4715257336,-0.611893740843,2.34263539187
-0.901497808332,2.75489834164,-1.09524697857,-1.92563318303
-5.67887128617,1.40827094968,-1.3686002163,-3.58390175792
-4.04624476402,-0.548356442279,-1.16195345404,-3.80217033281
-6.55361824186,-1.62498383424,-2.19530669177,-1.12043890771
-6.4609917197,-3.1516112262,-2.2586599295,-3.5787074826
3.80163480245,0.041761381839,-1.25201316723,-1.4969760575
-2.58573867539,2.29513398987,-0.745366404961,3.13475536761
-0.633112153231,0.608506597913,-0.248719642692,6.75648679271
3.04951436892,4.04187920595,0.397927119577,6.93821821782
6.21214089108,3.19525181399,0.134573881845,4.96994964292
5.44476741324,3.44862442203,-0.0887793558859,4.90168106803
-2.1226060646,4.83199703007,1.84786740638,3.51341249313
13.4400204576,3.37536963811,1.98451416865,6.20514391824
11.5826469797,-3.69125775386,-1.40883906908,3.22687534334
2.15527350187,-5.08788514582,-0.652192306809,-4.82139323155
5.92790002402,-4.62451253778,-0.985545544541,-7.35966180645
10.8105265462,-9.88113992974,-4.13889878227,-9.50793038134
4.30315306834,-12.6577673217,-5.43225202,-10.2861989562
4.3757795905,-9.91439471366,-5.27560525773,-4.56446753113
4.50840611265,-12.6010221056,-6.45895849547,-7.69273610602
14.7510326348,-11.0276494976,-6.6823117332,-3.11100468092
10.573659157,-9.93427688955,-7.89566497093,-3.77927325582
-15.5330668605,-9.34950581395,-3.49244912791,-7.48768168605
-8.69647205754,-3.02851704129,-3.27797896448,-4.04236017327
-0.659877254617,-5.20752826863,-5.71350880105,-2.6770386605
-5.6032824517,-3.62653949597,-5.67903863761,-1.99171714773
0.413312351226,0.264449276692,-5.72456847418,-3.17639563496
-0.170092845852,-2.83456195065,-5.58009831075,-4.69107412218
-1.05349804293,-3.21357317799,-2.82562814732,-4.42575260941
6.16309675999,1.05741559467,0.468842016113,-2.71043109664
2.83969156291,3.55840436734,1.46331217955,2.27489041613
10.6162863658,3.75939314,1.48778234298,2.43021192891
1.63288116875,3.58038191266,2.39225250641,-2.46446655832
0.73947597167,3.05137068532,1.09672266984,-3.17914504555
-14.2739292254,1.17235945798,0.971192833271,-2.89382353278
-10.2473344225,-2.88665176936,0.735662996703,-5.95850202
-10.6507396196,-4.7256629967,-0.149866839866,-9.93318050723
-17.1541448166,-5.25467422404,-0.455396676434,-12.7578589945
-10.7975500137,-3.67368545138,0.289073486997,-7.37253748169
-4.34095521081,-3.62269667872,-0.356456349571,-8.10721596892
1.22563959211,-2.64170790606,-1.98198618614,-5.94189445614
-5.46776560497,0.0692808666026,-1.65751602271,-4.08657294337
-0.151170802048,0.380269639263,-3.62304585928,-5.7812514306
-2.47457599912,1.32125841192,-2.58857569584,-0.335929917826
8.28201880379,2.24224718458,-0.304105532413,0.829391594945
-0.161386393283,1.21323595724,-1.96963536898,-1.16528689228
-1.61479159036,-1.42577527009,-2.78516520555,-0.399965379509
-6.41819678744,-4.21478649743,-2.31069504212,-2.99464386674
6.02839801548,-2.24379772477,-2.95622487869,-0.379322353963
1.4949928184,-0.882808952112,-3.39175471526,1.60599915881
-1.91841237868,4.17817982055,-0.0172845518227,3.53132067158
0.428182424239,8.66916859321,5.19718561161,4.68664218435
9.48477722716,2.81015736587,3.42165577504,3.39196369713
2.11137203008,0.711146138532,2.77612593847,2.0972852099
10.677966833,4.09213491119,2.4305961019,5.80260672267
13.2245616359,9.27312368385,1.87506626534,10.4479282354
