8.19040697675,-3.08163517441,-8.93283430233,-4.43908793605
4.77098127633,6.49239279093,-4.45723233497,2.08519765152
8.32155557591,-0.0335792437236,-5.73163036761,3.9394832391
14.7121298755,1.75044872162,-5.59602840025,5.33376882667
9.21270417506,5.48447668697,-2.21042643289,10.3380544142
5.78327847464,6.13850465231,-0.774824465532,14.4123400018
5.56385277422,-5.99746738234,-4.43922249817,3.9966255894
4.9344270738,0.476560583002,-3.31362053081,3.64091117698
5.04500137338,-1.65941145165,-4.76801856345,3.06519676455
8.86557567295,-9.82538348631,-5.7724165961,-3.75051764787
8.09614997253,-10.981355521,-4.57681462874,-5.6762320603
1.23672427211,-9.79732755562,-3.12121266138,-5.83194647272
1.18729857169,-6.82329959027,-0.255610694016,-3.92766088515
-5.70212712873,-2.19927162493,0.889991273343,-2.67337529757
-3.13155282915,-9.52524365958,-0.914406759297,-4.83908971
-2.64097852957,-1.64121569424,-2.36880479194,0.345195877577
0.419595770009,-8.29718772889,-5.44320282458,-2.62051853484
-4.78982993041,-6.48315976355,-3.62760085722,-6.88623294727
-9.28925563083,-0.499131798202,-0.451998889859,-3.2019473597
-5.75868133126,-2.10510383286,-0.1363969225,-5.65766177212
-11.4581070317,-9.03107586751,-2.08079495514,-8.47337618454
-9.8775327321,-3.33704790217,0.164807012219,-0.359090596969
-1.65695843252,0.77698006318,-0.319591020421,2.44519499061
-2.81638413294,-1.16899197148,-2.01398905306,-1.45051942181
-2.39580983336,-2.10496400613,-0.698387085702,-1.24623383424
1.31476446622,-0.380936040785,-1.40278511834,-1.08194824666
-2.0646612342,-2.74690807544,-3.27718315098,-3.45766265909
-3.72408693463,-4.7428801101,-3.09158118362,-4.97337707151
-1.64351263505,1.52114785525,-1.54597921627,-2.25909148394
-4.24293833547,4.89517582059,1.5196227511,1.04519410364
-7.30236403589,6.99920378594,1.63522471845,0.269479691215
-2.28178973631,-0.0167682487154,1.44082668581,-2.61623472121
4.06878456327,-1.00274028337,1.35642865317,-3.15194913363
0.359358862846,-2.69871231803,0.122030620534,-3.68766354606
4.99993316243,1.96531564732,0.667632587893,0.206622041518
2.00050746201,-2.95065638733,-0.846765444749,-4.19909237091
2.52108176158,0.51337157801,-1.22116347739,-1.66480678333
11.7416560612,6.70739954335,0.394438489971,3.80947880424
6.76223036074,5.1714275087,-0.659959542669,1.75376439181
-1.78719533968,-0.684544525955,-0.36435757531,-2.78195002061
0.203378959897,-4.69051656061,-1.09875560795,-3.91766443303
2.21395325948,-2.89648859526,0.0768463594086,-1.61337884546
-8.38547244094,-2.18246062992,2.31244832677,-2.50909325788
0.105101858635,2.20156733543,3.34805029413,1.1851923297
-3.67432384179,3.65559530077,5.67365226149,-0.400522082728
-3.76374954221,-4.17037673388,3.43925422885,-5.53623649515
-5.55317524263,-2.98634876854,1.23485619621,-3.90195090758
0.257399056951,1.70767919681,3.92045816357,1.55233468
3.04797335653,3.16170716215,5.86606013093,0.256620267573
0.208547656108,2.0657351275,3.93166209828,-0.749094144852
-2.08087804431,5.01976309284,3.41726406564,-1.15480855728
-2.08030374473,-6.55620894181,1.122866033,-4.1905229697
3.08027055484,-6.07218097647,0.928468000364,-3.17623738212
-2.21915514558,2.02184698888,4.99406996772,0.708048205452
-2.538580846,0.485874954222,5.06967193508,-1.98766620697
-4.11800654642,-0.720097080432,5.90527390244,-0.353380619395
-3.49743224684,-0.906069115088,5.5708758698,2.39090496818
0.213142052737,-0.362041149741,1.66647783716,4.11519055576
1.05371635232,3.5219868156,1.71207980452,4.40947614333
3.6942906519,1.93601478095,1.37768177188,5.97376173091
-1.98513504853,2.36004274629,2.57328373924,2.79804731848
-5.47456074895,-1.74592928836,3.4688857066,0.46233290606
-6.57398644937,1.46809867698,6.28448767396,4.01661849364
-7.60341214979,8.67212664233,6.81008964132,3.88090408121
-4.28283785021,3.57615460767,3.99569160868,5.55518966878
-1.84226355063,4.18018257302,4.04129357604,4.50947525636
3.85831074895,2.23421053837,3.1568955434,4.26376084393
-0.241114951474,2.72823850371,4.79249751076,0.0480464315078
-8.7805406519,1.09226646906,3.02809947812,-4.08766798092
-8.33996635232,-0.583705565599,2.00370144548,-3.61338239334
-14.8693920527,-1.76967760026,1.58930341283,-6.82909680576
-6.28881775316,-1.92564963491,2.17490538019,-3.34481121819
-8.85824345358,1.56837833044,3.18050734755,-1.89052563061
-14.557669154,5.25240629578,5.04610931491,-2.42624004304
-13.2670948544,-1.36356573887,3.23171128227,-2.42195445546
-7.52652055485,-2.54953777353,3.05731324963,-4.87766886788
-6.33594625527,3.08449019182,3.46291521699,0.176616719691
-3.48537195569,3.01851815716,3.75851718435,3.71090230727
-2.99479765611,7.60254612251,3.32411915171,4.29518789484
1.31577664347,2.39657408785,0.419721119069,0.919473482416
-2.99364905695,2.1706020532,0.64532308643,1.32375906999
-1.59307475737,4.87463001854,1.43092505379,1.20804465757
-2.53250045779,5.16865798388,3.13652702115,0.762330245143
-6.29192615822,2.10268594923,1.48212898851,-2.04338416728
-8.82135185864,4.45671391457,1.84773095587,-1.08909857971
-2.85077755906,6.26074187992,3.46333292323,3.74518700787
3.06979674052,5.86476984527,3.52893489058,3.96947259545
8.3203710401,4.96879781061,2.04453685795,3.50375818302
11.0209453397,8.70282577596,1.64013882531,6.7280437706
10.2115196393,11.4968537413,2.69574079266,8.42232935817
9.23209393884,12.5308817066,2.54134276003,9.81661494575
12.3126682384,6.08490967199,0.666944727382,9.05090053332
3.45324253799,8.20893763734,2.35254669474,10.4851861209
5.31381683757,15.9729656027,1.8481486621,11.2694717085
5.55439113715,30.676993568,7.59375062946,13.6837572961
6.91496543673,-2.37897846663,-4.16064740318,-0.241957116374
5.00553973631,-3.54495050128,-4.71504543582,-0.617671528798
9.41611403589,5.30907746406,-2.89944346846,3.90661405878
10.0766883355,10.9031054294,-0.6338415011,11.3708996464
15.437262635,11.0971333948,-1.05823953374,12.4051852339
12.2478369346,2.9411613601,-3.69263756638,3.7994708215
10.3184112342,12.0151893254,0.0429644009782,3.93375640908
9.93898553378,4.19921729079,-1.89143363166,-0.891958003343
3.64955983336,-2.77675474387,-4.6658316643,-2.16767241577
3.70013413294,-0.702726778522,-3.58022969694,-2.32338682819
4.30070843252,5.09130118682,0.485372270417,2.87089875938
-2.2787172679,7.14532915217,1.16097423778,4.03518434696
3.15185703167,8.66935711751,1.43657620513,5.50946993454
9.18243133126,15.9133850829,3.14217817249,8.46375552211
5.58300563083,7.03741304821,0.617780139853,6.98804110969
-1.10642006959,-4.02855898645,-2.08661789279,2.99232669726
-6.75584577001,-14.7345310211,-7.33101592543,-8.92338771516
-9.57527147043,-13.9705030558,-5.53541395807,-11.1991021276
-4.75469717085,-5.52647509042,-3.53981199071,-6.46481654001
-4.84412287127,-10.2824471251,-3.47421002335,-7.51053095244
-2.05354857169,-8.57841915972,-2.52860805599,-3.77624536486
2.65702572789,-1.65439119438,0.39699391137,2.17804022271
4.10760002746,1.49963677097,-0.237404121272,1.52232581029
-1.12182567296,-12.2663352637,-6.63180215391,-5.49338860214
-5.62125137338,-8.42230729834,-1.46620018655,-4.90910301456
-8.7906770738,-20.048279333,-5.03059821919,-13.464817427
-4.01010277422,-20.2242513677,-3.53499625183,-14.0905318394
-4.21952847464,-2.88022340231,-0.0193942844726,-3.98624625183
-0.0789541750637,-14.456195437,-4.75379231711,-7.96196066426
1.41162012452,-7.06216747162,-2.95819034975,-1.67767507668
-0.307805575905,-13.3381395063,-7.60258838239,-1.47338948911
-1.47723127633,-13.7141115409,-7.35698641503,-6.14910390153
0.91334302325,-13.3800835756,-6.46138444767,-9.51481831395
-37.0239462209,-31.3952507267,6.99081395348,-55.5800036337
-40.5048474123,-14.1414758629,11.7685668833,-50.1212658797
-38.0657486037,-34.7377009991,6.72631981322,-55.6525281256
-31.6066497951,-22.9639261353,8.39407274308,-47.2537903715
-30.6675509865,-26.9001512715,6.99182567295,-48.4650526174
-34.5084521779,-26.6663764077,8.09957860281,-48.6863148634
-28.4493533693,-27.4526015439,8.29733153268,-42.7075771093
-28.9802545607,-21.2888266801,7.56508446255,-35.0388393552
-25.4911557522,-14.2250518163,9.74283739242,-36.9501016011
-24.4120569436,-8.24127695248,10.6105903223,-32.9313638471
-22.292958135,-20.4575020887,6.16834325215,-35.302626093
-19.5338593264,-26.4237272249,2.00609618201,-34.9738883389
-20.2747605178,-24.1099523611,4.52384911188,-31.9551505848
-19.5756617092,-16.1361774973,6.97160204175,-24.4964128308
-18.7665629006,-15.8524026334,6.79935497161,-23.0076750767
-18.247464092,-12.4786277696,8.82710790148,-22.2489373226
-16.5083652834,0.945147094171,10.6448608313,-18.5901995685
-11.6092664748,-13.901078042,3.55261376121,-19.9614618145
-6.49016766618,-8.62730317822,4.95036669108,-14.4227240604
-2.12106885758,0.306471685592,5.85811962095,-7.89398630632
-4.24197004898,-1.7597534506,6.67587255081,-7.25524855224
-3.44287124038,-2.2759785868,7.33362548068,-8.19651079817
-4.68377243179,13.727796277,10.9613784105,2.57222695591
-3.54467362319,-4.92842885918,3.66913134041,-3.88903529002
-3.02557481459,-8.32465399538,-0.163115729723,-8.90029753594
2.403523994,-4.08087913157,-0.395362799856,-2.60155978187
6.4126228026,3.24289573224,2.69239013001,4.4271779722
2.8117216112,-6.42332940395,-0.669856940125,3.37591572628
4.9208204198,2.67044545985,1.53789598974,7.21465348035
10.0599192284,13.3542203237,4.65564891961,12.1233912344
11.759018037,3.99799518747,1.18340184948,9.3321289885
11.3581168456,2.67177005127,-1.19884522066,7.22086674258
4.43721565419,-3.07445508492,-4.27109229079,4.95960449665
8.26631446278,-3.68068022111,-7.66333936093,4.32834225072
2.76541327138,-4.8469053573,-8.45558643106,6.8970800048
6.79451207998,0.726869506501,-5.71783350119,6.64581775888
8.11361088857,2.98064437031,-3.82008057133,6.30455551295
10.7527096972,17.7344192341,1.77767235854,18.303293267
9.93180850577,8.58819409792,-0.984574711594,15.4420310211
10.2709073144,11.2619689617,-3.67682178173,19.9707687752
9.71000612296,7.67574382554,-3.57906885186,20.8195065292
9.64910493156,13.9295186893,1.108684078,27.8082442833
10.5482037402,27.6532935532,6.52643700787,33.7469820374
8.82730254876,6.20706841696,-3.47581006226,21.1157197915
14.6664013574,7.12084328076,-5.3180571324,20.5244575455
19.335500166,8.43461814457,-5.08030420253,23.9231952996
15.4545989745,16.1583930084,-4.93255127266,25.9319330537
18.4736977831,-2.81783212782,-10.0847983428,19.1306708078
16.7927965917,8.97594273599,-6.65704541293,22.2794085618
12.4618954003,11.5597175998,-6.05929248306,20.8581463159
18.0509942089,13.0534924636,-7.1215395532,27.58688407
15.1500930175,17.0472673274,-6.50378662333,32.1656218241
18.0191918261,21.2210421912,-5.77603369346,32.7843595781
23.3382906347,8.61481705503,-9.4982807636,26.8830973322
18.9573894433,13.5485919188,-4.71052783373,27.3018350863
20.9464882519,11.1923667826,-8.16277490387,24.9005728404
25.1155870605,7.81614164645,-7.095021974,24.5893105944
19.8146858691,11.7399165103,-5.20726904413,25.2280483485
10.9937846777,22.6036913741,-9.79951611427,22.7167861026
6.38288348631,0.377466237867,-16.1817631844,15.4555238567
10.1219822949,8.35124110167,-13.0140102545,23.2942616107
20.6810811035,19.4050159655,-7.01625732467,31.8529993648
24.4801799121,8.51879082929,-12.7485043948,25.0317371189
25.2392787207,9.27256569309,-10.7007514649,27.260474873
17.5783775293,17.4063405569,-4.14299853507,25.929212627
17.6674763379,20.7701154207,-3.2552456052,26.1279503811
13.6265751465,14.7538902845,-7.60749267534,26.9066881352
13.6056739551,18.1676651483,-6.22973974547,27.6454258893
17.5447727637,25.4514400121,-5.3619868156,33.7841636433
24.2938715723,19.3852148759,-9.51423388573,35.8329013974
20.8129703809,22.1989897397,-9.83648095587,28.5716391515
19.7020691895,10.1927646036,-8.548728026,27.3303769056
24.0611679981,15.0565394674,-3.87097509614,32.3791146596
21.9802668067,13.0203143312,-7.87322216627,30.6978524137
18.3893656153,16.474089195,-9.2254692364,27.5865901678
12.4884644239,4.75786405878,-10.8077163065,19.0253279218
10.2575632325,7.90163892259,-8.30996337667,22.3740656759
13.9466620411,10.7854137864,-7.3622104468,22.92280343
13.5957608497,5.0491886502,-8.42445751694,18.2015411841
17.3548596583,21.522963514,-1.50670458707,25.7802789381
24.6839584669,33.6767383778,-2.22895165721,31.4290166922
24.3930572755,14.4705132416,-9.17119872734,23.6877544463
23.612156084,17.9242881054,-3.05344579747,26.0964922004
24.2212548926,27.4180629692,2.63430713239,28.4652299544
18.3703537012,27.551837833,1.39206006226,28.6839677085
10.9494525098,-3.70438730315,-6.86018700787,8.82270546259
11.5585513184,19.3593875607,1.05756592199,15.3514432167
10.737650127,6.12316242446,-3.95468114814,13.5101809707
10.8967489356,6.98693728827,-4.03692821827,13.8689187248
8.16584774423,13.4907121521,-1.40917528841,14.1276564789
6.42494655283,12.7244870159,1.68857764146,12.446394233
-0.0759546385743,12.4282618797,-1.13366942867,9.42513198704
2.09314417002,-0.567963256502,-4.16591649881,8.05386974111
3.42224297862,8.6158116073,2.04183643106,8.34260749519
1.85134178722,16.3195864711,0.979589360923,8.18134524926
-0.929559404185,-10.9966386651,-6.92265770921,-7.33991699666
0.859539404411,-18.8028638013,-8.79490477934,-16.6211792426
1.41863821301,-1.95908893747,-6.36715184948,-3.70244148851
-3.52226297839,11.5846859263,4.42060108039,2.50629626556
-8.90316416979,-2.66153920985,-0.461645989742,-5.99496598036
-4.2040653612,-8.67776434605,-4.69389305988,-7.78622822629
-1.5649665526,13.5760105178,3.80385986999,5.69250952778
-4.405867744,5.45978538157,4.87161279985,0.831247281854
0.743231064595,4.24356024537,6.53936572972,-3.75001496407
0.92232987319,12.7073351092,5.76711865959,1.24872279001
-1.30857131821,-12.548890027,1.30487158945,-9.93253945592
-5.66947250961,-13.0951151632,-3.55737548068,-18.4238017018
-9.19037370102,5.0086597006,-0.749622550813,-12.3050639478
-10.0012748924,-9.39756543559,1.02813037905,-17.6963261937
-9.03217608382,-12.8437905718,-0.45411669108,-17.9275884396
-9.81307727523,-14.170015708,2.77363623879,-20.6388506855
-10.2339784666,-14.6162408442,6.29138916865,-19.0101129315
-13.074879658,-8.90246598037,9.23914209852,-17.4913751774
-11.7757808494,-16.0586911166,5.71689502838,-20.3826374233
-11.6566820408,-16.3149162527,5.77464795825,-19.2438996693
-14.6075832322,-8.29114138895,13.0224008881,-21.4851619152
-18.8084844236,-4.83736652514,14.180153818,-24.2864241611
-23.699385615,-35.9135916613,3.50790674785,-41.497686407
-28.5702868064,-21.9898167975,12.1456596777,-33.438948653
-28.0311879979,-16.9860419337,13.9034126076,-32.0602108989
-25.7220891893,-24.6122670699,9.71116553745,-40.0614731448
-30.9729903807,-31.3484922061,5.06891846732,-42.9327353907
-33.1138915721,-32.4747173423,5.44667139718,-45.0839976367
-32.7947927635,-31.3109424785,4.96442432705,-44.5952598826
-30.9156939549,-22.1571676147,10.2021772569,-39.4165221285
-28.0965951463,-20.8233927509,11.2699301868,-37.1177843744
-29.2174963377,-28.7396178871,8.99768311665,-43.9090466204
-32.5183975291,-22.2358430233,12.2754360465,-42.9603088663
37.4623546512,23.7953597384,-29.3888081395,45.8854142442
36.7169472452,30.3470617504,-24.5727011708,49.6533629372
32.5815398393,35.4587637624,-23.2165942021,45.6013116302
30.0961324334,13.8304657744,-26.7504872333,38.2792603232
28.5207250275,21.5021677864,-26.7843802646,37.1672090162
27.6653176215,15.1038697983,-28.7782732959,33.7451577092
25.3399102156,-0.264428189659,-28.5421663271,28.5631064022
25.5745028097,25.4272738223,-19.1860593584,35.6210550952
22.7790954038,10.8589758343,-21.7599523897,27.0490037882
18.7736879978,17.5606778463,-19.7038454209,27.4769524812
18.7882805919,2.86237985832,-22.4677384522,16.4949011742
16.302873186,21.5540818703,-17.6616314835,23.9528498672
16.4074657801,23.8457838823,-20.3555245147,23.3307985602
11.4920583742,22.3974858943,-12.739417546,25.1087472532
10.1866509682,7.81918790629,-13.3233105773,25.8566959462
5.17124356231,18.1508899183,-12.7572036085,17.5146446393
3.40583615638,11.1025919303,-13.0710966398,11.7125933323
6.79042875046,12.6942939423,-12.3649896711,7.85054202526
6.38502134453,18.0959959543,-8.63888270235,11.0684907183
4.63961393861,11.1276979663,-8.96277573361,12.8364394113
5.48420653269,13.4693999783,-9.83666876488,9.56438810428
1.13879912676,-2.97889800975,-13.5305617961,3.36233679728
2.76339172084,8.74280400225,-7.34445482741,11.4402854903
4.36798431491,29.1645060142,1.16165214132,16.3282341833
2.35257690899,4.54620802624,-5.15224088995,1.5161828763
5.02716950307,3.20791003823,-4.12613392122,5.3041315693
7.55176209714,-4.62038794978,-4.45002695248,5.56208026231
9.31635469122,7.30131406222,1.53608001625,9.96002895531
4.2809472853,6.86301607421,-1.03781301502,3.28797764832
2.23553987937,8.4547180862,0.718293953716,2.93592634132
-1.94986752655,-2.1735799018,-2.48559907755,-4.44612496567
-3.09527493248,3.31812211019,3.41050789118,-1.12817627267
-1.2206823384,14.3898241222,3.69661485991,2.87977242034
-7.34608974433,-6.22847386582,-0.967278171353,-5.31227888666
-9.77149715025,-3.33677185383,2.82882879738,-6.88433019365
-13.3669045562,-18.6150698418,-0.415064233886,-16.0363815006
-14.6723119621,-2.37336782984,8.83104273485,-14.1084328076
-10.277719368,-1.79166581784,9.02714970358,-6.54048411464
-11.9531267739,-13.8899638058,5.48325667231,-12.1125354216
-12.9285341799,-22.4182617939,7.61936364104,-14.9045867286
-11.9039415858,-12.9765597819,13.3654706098,-8.65663803562
-8.66934899172,12.2451422301,19.3415775785,-5.79868934262
-7.08475639764,1.12684424213,12.1876845472,-3.94074064961
-10.4401638036,2.49854625412,14.283791516,-7.95279195661
-9.48557120949,0.850248266115,12.7298984847,-10.0648432636
-11.9009786154,-28.6380497219,5.79600545344,-25.8568945706
-10.5463860213,-11.7563477099,13.3221124222,-19.6689458776
-6.17179342726,20.7953543021,26.7282193909,-3.90099718458
-11.9472008332,-31.6029436859,3.89432635964,-29.9530484916
-11.5926082391,-25.6912416739,9.08043332837,-27.9750997986
-8.23801564503,-17.8195396619,11.9265402971,-24.6371511056
-13.273423051,-21.8278376499,12.1926472658,-26.6192024126
-12.6388304569,-18.6261356379,14.1087542346,-25.9112537196
-10.0942378628,-9.60443362594,18.5248612033,-20.5133050266
-12.5096452687,-11.8527316139,16.710968172,-20.2553563335
-14.5950526747,-6.57102960195,16.5670751408,-17.4974076405
-13.3304600806,-10.41932759,19.3131821095,-20.8994589475
-7.5658674865,-20.517625578,18.5692890782,-14.1015102545
-9.29127489242,-8.77592356597,21.845396047,-22.5835615615
-13.4766822983,-13.564221554,20.3415030157,-20.1356128685
-12.4720897043,-7.10251954198,22.6176099844,-17.9076641755
-13.3274971102,-17.50081753,20.3237169532,-27.1697154825
-13.3329045161,-17.319115518,19.1998239219,-27.9717667895
-12.978311922,-12.897413506,18.8359308906,-27.0438180965
-18.063719328,-29.295711494,12.1520378594,-34.8958694035
-19.1591267339,-28.794009482,12.7181448281,-42.0179207105
-19.7445341398,-20.63230747,18.4342517968,-35.0499720175
-22.9499415457,-16.420605458,19.9503587656,-34.7320233245
-22.1553489517,-34.978903446,10.6664657343,-43.1840746315
-22.4707563576,-30.607201434,15.582572703,-39.7761259385
-17.5161637635,-9.27549942204,21.1386796718,-28.1681772455
-22.6315711694,-16.62379741,18.1547866405,-29.0702285525
-22.1969785754,-20.862095398,19.1108936092,-30.9622798595
-16.7023859813,0.719606613946,18.437000578,-17.0443311665
-16.3277933872,-5.36869137406,23.8331075467,-19.0763824734
-12.5732007931,-14.0769893621,23.4092145154,-14.0284337804
-9.51860819905,-5.75528735007,23.8253214842,-10.2904850874
-8.58401560498,-0.403585338077,25.2214284529,-6.25253639443
-9.6594230109,-6.22188332608,20.3675354216,-11.9645877014
-11.3448304168,-24.3201813141,14.3936423904,-22.5966390084
-12.1602378227,-12.2184793021,15.2997493591,-12.9486903154
-8.04564522867,-12.0467772901,14.9358563278,-15.2807416224
-7.5610526346,-15.3250752781,12.8919632966,-11.3827929294
-13.2864600405,-12.8333732661,16.4880702653,-16.2048442364
-14.1418674464,6.95832874588,22.004177234,-13.3068955434
-11.7572748524,-6.34996924213,19.3602842028,-17.6089468504
-18.8926822583,-38.9382672301,7.19639117149,-32.3309981574
-12.7280896642,-23.0965652181,9.87249814022,-26.8230494644
-6.29349707014,-8.20486320614,8.35860510896,-13.5551007714
-7.32890447606,-30.5231611941,1.98471207769,-19.8671520784
-11.534311882,-12.5014591822,11.2808190464,-12.6792033854
-10.6697192879,-15.4997571702,4.02692601515,-13.3212546924
-10.2251266938,-22.3080551582,7.04303298389,-14.8933059994
-12.4005340998,-8.35635314617,11.1891399526,-10.3453573064
-13.1459415057,-15.8946511342,3.94524692135,-13.5074086133
-11.6513489116,-16.0029491222,-0.218646109914,-12.9594599203
-11.4167563175,-12.7512471102,0.667460858818,-12.2115112273
-8.73216372345,-8.15954509819,-2.91643217245,-9.23356253433
-12.6975711294,-15.9278430862,2.23967479628,-11.1456138413
-13.7329785353,-15.7361410742,1.76578176502,-10.1876651483
-15.4583859412,-3.23443906221,0.101888733749,-6.03971645531
-15.1937933471,-4.54273705022,-3.44200429752,-7.77176776231
-12.3792007531,-7.93103503823,-4.89589732879,-5.7138190693
-9.144608159,-7.98933302623,-3.91979036005,-3.6158703763
-14.5000155649,-3.05763101424,-3.05368339132,0.642078316705
-7.97542297085,9.67407099776,0.582423577414,6.77002700971
-1.79083037677,9.09577300975,-2.76146945385,7.72797570272
-0.276237782693,-1.24252497826,-5.53536248512,8.62592439572
0.478354811385,12.6291770337,-6.90925551639,12.4438730887
2.46294740546,-11.3891209543,-16.5031485477,1.68182178173
1.29753999953,-17.3274189423,-11.1470415789,10.9197704747
-2.52786740639,20.4642830697,-7.75093461019,11.9777191677
5.59672518769,6.07598508172,-17.0348276415,10.6756678607
4.72131778176,-1.29231290629,-24.0787206727,10.4836165538
12.6359103758,9.9893891057,-19.222613704,19.7915652468
18.0405029699,9.5910911177,-18.4665067353,21.0595139398
19.705095564,21.6327931297,-22.1603997665,26.5874626328
28.3996881581,19.6944951417,-24.9142927978,30.3754113258
28.6342807521,24.8261971537,-23.2181858291,32.1533600188
26.5488733462,28.5478991657,-21.8220788603,37.7113087118
32.1834659403,36.9096011777,-21.1859718916,44.6892574048
32.2680585344,32.6313031897,-25.2298649229,39.9872060978
42.0726511284,42.8330052017,-24.6837579541,51.2851547908
46.5172437225,35.7547072137,-27.9476509854,51.6131034838
47.4918363166,43.2364092256,-25.5215440167,50.3710521768
46.8564289107,45.0081112376,-28.6154370479,52.5690008698
49.8510215048,44.7998132496,-30.2493300792,54.6369495628
57.3356140988,66.4915152616,-30.9732231105,68.8448982558
2.5258994709,5.28341269841,2.76936507936,7.16732804232
1.63883597884,10.125970696,3.34531135531,8.31605209604
0.721772486771,-3.99147130647,-0.408742368743,3.70477614977
2.71470899471,-4.95891330891,-2.1127960928,-1.40649979651
7.45764550265,1.54364468865,-0.206849816852,1.42222425722
7.20058201058,9.6762026862,1.2490964591,2.68094831094
2.84351851852,1.36876068376,2.31504273504,4.34967236466
-2.45354497354,-11.9986813187,-1.54901098901,-3.93160358161
-7.41060846561,6.03387667888,5.80693528694,-1.55287952788
-7.78767195767,-4.33356532356,-7.47711843712,-6.90415547416
-4.24473544973,-5.94100732601,-3.63117216117,-7.22543142044
-4.1517989418,4.51155067155,1.73477411477,-2.99670736671
-4.28886243386,-2.88589133089,-5.88927960928,-8.90798331299
-0.0359259259258,-3.06333333333,-3.65333333333,-5.13925925927
0.90701058201,-2.48077533577,0.882612942612,-2.76053520554
-1.61005291005,-7.46821733822,-0.641440781441,-5.94181115182
-5.40711640212,-5.29565934066,0.124505494505,-2.80308709809
-0.33417989418,-0.0231013431003,3.05045177045,0.405636955631
0.968756613756,-4.32054334554,-0.123601953603,1.12436100936
-0.348306878306,8.33201465202,3.34234432234,5.23308506308
0.464629629629,-1.97542735043,-0.55170940171,0.261809116804
1.71756613757,3.01713064713,0.794236874237,2.75053317053
-1.5594973545,-1.66031135531,0.750183150183,2.44925722425
-1.44656084656,-4.87775335775,-4.62387057387,-1.87201872202
-1.48362433862,3.5048046398,1.41207570208,-0.863294668299
5.30931216931,7.79736263736,1.56802197802,6.16542938543
