-6.12446584301,4.42686046512,-2.67942950582,3.68438953488
-5.09350968801,6.92148544795,-2.40374705297,7.6393167174
0.0474464670042,11.5461104308,-0.908064600128,10.5442438999
-0.721597377986,0.150735413616,-3.83238214728,5.28917108245
-5.25064122298,2.91536039645,-1.92669969443,4.32409826497
-4.28968506797,11.1399853793,-0.321017241586,7.71902544749
-3.50872891296,11.5446103621,-0.765334788735,10.11395263
6.03222724205,11.3592353449,-0.0496523358888,8.25887981253
-0.116816602949,0.543860327783,-0.893969883044,4.65380699506
6.79413955206,9.05848531062,1.43171256981,12.6587341776
1.69509570707,8.49311029345,-1.22260497735,11.3136613601
3.66605186208,8.20773527628,-1.1769225245,8.29858854262
9.80700801709,10.9023602591,-0.881240071652,9.75351572514
3.07796417209,13.6269852419,-0.475557618804,10.1284429077
2.6089203271,13.3616102248,1.94012483404,7.89337009018
7.07987648211,14.9462352076,3.61580728689,7.75829727271
7.64083263712,21.4908601904,5.49148973974,21.1232244552
-5.07821120787,12.3754851733,-0.362827807414,7.75815163775
-0.427255052866,0.210110156109,-6.18714535457,1.87307882027
-0.696298897856,1.99473513894,-1.63146290172,2.67800600279
2.76465725715,6.66936012178,-1.44578044887,-1.34706681469
3.14561341216,8.43398510461,-0.950097996025,0.707860367836
1.04656956717,6.07861008744,-2.29441554318,1.85278755036
3.56752572217,-2.07676492973,-3.58873309033,-0.632285267121
-1.52151812282,-1.34213994689,-2.24305063748,-3.1773580846
-4.54056196781,4.00248503594,-0.257368184633,0.197569097921
0.930394187199,10.4071100188,0.908314268214,3.47249628044
8.60135034221,2.7217350016,-0.516003278939,-0.0325765370353
2.67230649721,0.576359984436,1.11967917391,1.08235064549
4.59326265222,-1.77901503273,1.07536162676,2.93727782801
4.53421880723,3.7456099501,1.2310440796,1.59220501053
8.93517496224,3.92023493294,0.496726532452,3.06713219305
9.33613111725,2.04485991576,1.2324089853,2.58205937557
6.83708727226,-4.7105151014,0.858091438145,-0.643013441906
3.56804342727,2.55410988143,4.393773891,1.68191374062
3.63899958227,3.26873486426,4.23945634384,0.206840923136
2.31995573728,6.68335984709,4.95513879669,2.62176810566
1.85091189229,2.72798482993,4.76082124954,-0.26330471182
-1.4381319527,-2.55739018724,1.82650370238,-1.5383775293
-7.0471757977,-6.04276520441,1.87218615523,-5.18345034678
-2.01621964269,-6.66814022157,1.47786860808,-7.30852316426
-2.64526348768,-6.38351523874,-0.706448939072,-7.22359598173
-8.59430733267,-5.77889025591,0.409233513776,-5.45866879921
-5.26335117767,-12.2442652731,-1.39508403338,-10.1237416167
-11.5923950227,-14.4296402902,-0.11940158053,-15.4488144342
-13.2214388676,-12.8650153074,1.39628087232,-14.2438872516
-8.75048271264,-13.1403903246,-0.638036674831,-15.6089600691
-9.37952655763,-17.5057653417,-2.51235422198,-14.4040328866
-14.2485704026,-24.1011403589,-3.82667176914,-20.0991057041
-22.0976142476,-24.0065153761,-5.45098931629,-21.2841785216
-18.2966580926,-24.8818903932,-7.06530686344,-23.679251339
-7.0957019376,-23.2272654104,-6.31962441059,-20.0343241565
-14.6047457826,-18.2226404276,-3.25394195775,-20.199396974
-18.0037896276,-24.5980154447,-2.9382595049,-21.7844697915
-13.3328334726,-21.9833904619,-4.12257705205,-19.149542609
-1.75187731757,-19.2787654791,-2.89689459921,-15.3446154264
-0.730921162558,-9.69414049625,0.078787853643,-8.05968824391
-5.57996500755,-6.38951551342,1.84447030649,-8.06476106139
0.630991147456,-10.9948905306,0.71015275934,-8.34983387887
-6.00805269753,-11.2602655477,1.44583521219,-8.35490669635
-5.08709654252,-7.19564056492,3.40151766504,-5.42997951382
1.17385961249,-5.03101558208,3.01720011788,-4.4450523313
-5.31518423251,-4.71639059925,2.44288257073,-5.14012514878
-6.3842280775,-11.3617656164,1.47856502358,-8.69519796626
-3.43327192249,-13.7971406336,0.524247476424,-8.27027078374
2.35768423251,-9.04251565076,2.12992992927,-2.25534360122
5.65864038753,-7.58789066792,1.12561238212,-3.0004164187
-2.03040345747,-9.17326568509,1.06129483497,-7.02548923617
-6.94944730246,-12.0886407023,0.996977287814,-9.77056205365
-3.49849114745,-4.75401571942,2.10265974066,-4.78563487113
1.19246500756,-8.19939073659,1.07834219351,-3.96070768861
5.12342116256,-4.06476575376,1.47402464636,-1.92578050609
-0.235622682427,0.309859229077,2.54970709921,-3.34085332357
7.04533347258,-0.515515788091,2.59538955205,-0.765926141045
-0.373710372412,-12.1208908053,-0.4789279951,-6.40099895852
2.3572457826,-2.75626582242,0.306754457746,-3.586071776
4.2482019376,6.27835916041,0.192436910595,2.39885540652
1.43915809261,-1.72701585676,0.258119363443,-0.486217410959
1.44011424762,-3.14239087393,3.01380181629,0.928709771562
1.41107040263,0.032234108905,4.30948426914,6.13363695408
12.9720265576,6.82685909174,5.29516672199,6.30856413661
11.8729827126,3.74148407457,0.780849174833,2.01349131913
5.25393886765,-0.513890942595,-0.223468372322,-1.29158149835
10.2148950227,-3.34926595977,-0.597785919472,2.17334568417
5.54585117767,-2.37464097693,0.367896533375,1.11827286669
5.03680733268,0.0899840059028,0.653578986221,3.93320004921
8.24776348769,5.49460898873,2.06926143907,6.21812723174
17.1687196427,8.84923397157,3.14494389192,9.74305441426
10.4896757977,10.2038589544,2.81062634477,11.3079815968
11.9606319527,3.29848393723,3.54630879761,9.6129087793
6.51158810772,8.50310892006,3.59199125046,13.9878359618
10.8625442627,10.2477339029,1.91767370331,9.96276314434
17.9935004177,5.59235888573,0.493356156156,10.3676903269
11.1544565727,3.55698386856,1.699038609,7.93261750939
11.6654127278,5.59160885139,1.75472106185,5.86754469191
6.83636888276,2.61623383423,-0.619596485303,5.18247187443
12.7173250378,7.69085881706,1.06608596754,7.70739905695
10.5982811928,7.79548379989,-0.438231579607,8.24232623947
7.66923734778,3.71010878273,0.327450873239,8.48725342199
7.85019350279,4.95473376556,-0.606866673912,5.84218060451
15.8011496578,6.31935874839,-3.29118422106,11.517107787
13.7721058128,12.5539837312,-1.47550176822,12.1420349696
10.6630619678,12.5986087141,0.580180684632,8.49696215208
8.96401812282,6.29323369689,-0.374136862523,6.9618893346
1.04497427783,8.61785867973,3.13154559032,5.79681651712
-2.30406956716,13.0424836626,3.20722804317,6.40174369964
1.49688658785,2.14710864539,-1.62708950398,-0.103329117835
-1.88215725714,1.54173362822,-1.82140705113,-1.06840193531
-3.87120110213,1.22635861105,-1.75572459828,0.916525247208
-8.14024494713,-0.179016406113,-1.44004214544,0.31145242973
-8.33928879212,5.49560857672,-0.894359692589,4.49637961225
-1.92833263711,8.11023355955,-2.34867723974,2.73130679477
-1.89737648211,4.86485854238,-0.672994786895,0.536233977295
-11.9864203271,0.0594835252159,0.512687665952,-3.99883884018
-8.98546417208,5.33410850805,-0.5716298812,2.78608834234
-6.70450801708,-3.05126650912,-2.87594742835,0.311015524859
-12.0235518621,4.01335847372,-0.570264975504,-0.434057292619
-12.0525957071,0.71798345655,-0.704582522656,-2.7591301101
-11.7616395521,-4.32739156062,-1.54890006981,-4.34420292758
-15.960683397,0.917233422213,0.106782383038,-0.789275745055
-7.10972724204,3.04185840505,-0.737535164113,1.51565143747
-6.75877108703,12.9664833879,0.688147288733,4.66057861999
-2.99781493202,0.89110837071,-4.73617025842,-0.63449419749
-4.96685877701,-6.19426664646,-4.27048780557,-5.37956701497
-4.40590262201,-3.77964166362,-2.65480535272,-3.70463983245
-7.024946467,7.61498331921,-0.529122899876,2.13028735007
-4.99399031199,4.45960830204,-1.55344044703,-0.864785467404
3.23696584302,-0.0557667151224,-2.93775799418,-0.949858284882
-9.43961482558,5.31469840117,-2.09693313953,-12.2816388081
-11.0920384602,9.83687834761,-0.0211903440286,-9.16117131707
-9.20446209485,6.49905829404,-2.64544754852,-12.090703826
-8.91688572949,8.58123824048,-3.79970475302,-11.5902363349
-4.85930936412,-0.446581813078,-7.09396195751,-18.1997688438
-13.3117329988,-6.38440186664,-5.71821916201,-19.2693013528
-6.7741566334,-1.5722219202,-7.0024763665,-16.5888338617
-8.00658026804,-2.30004197376,-6.806733571,-15.1283663706
-7.85900390267,0.652137972673,-5.77099077549,-13.0678988796
-3.82142753731,0.234317919112,-4.95524797999,-12.4174313885
1.31614882806,5.85649786555,-2.79950518449,-6.23696389741
5.96372519341,-3.45132218801,-4.57376238898,-5.54649640634
6.94130155878,4.71085775843,-2.29801959348,-6.87602891526
0.558877924144,8.42303770487,-1.99227679797,-4.46556142419
0.756454289505,2.32521765131,-2.56653400247,-4.79509393312
3.69403065487,2.98739759775,-0.580791206961,0.305373557956
4.58160702024,4.03957754418,-1.57504841146,-2.23415895097
3.4191833856,6.26175749062,-1.53930561596,1.3863085401
5.62675975096,11.7939374371,1.06643717955,9.61677603118
14.2943361163,10.6561173835,0.0721799750536,9.60724352225
5.65191248169,3.01829732993,-2.35207722944,1.26771101332
5.15948884705,-0.879522723626,-2.87633443393,-2.21182149561
7.76706521241,3.45265722281,0.199408361568,-1.29135400453
2.57464157778,5.92483716925,-0.324848842927,-2.65088651346
-6.45778205686,1.52701711569,-1.96910604742,-6.82041902239
1.68979430851,3.31919706213,0.306636748082,-3.08995153131
-1.89262932613,0.601377008563,2.04237954359,-0.919484040241
7.19494703923,7.743556955,5.42812233909,4.16098345083
6.6125234046,21.5857369014,7.63386513459,14.0914509419
7.68009976996,21.9679168479,5.8096079301,16.131918433
13.8876761353,14.4200967943,4.6353507256,15.4623859241
13.6952525007,16.1522767408,4.96109352111,18.2828534151
14.672828866,18.3044566872,5.73683631661,21.1733209062
3.72040523141,22.0366366336,6.68257911212,17.3537883973
8.84798159678,17.7988165801,3.32832190762,13.3142558883
3.41555796214,7.77099652651,2.80406470313,8.84472337942
7.6731343275,12.6031764729,5.91980749863,10.2851908705
4.14071069287,13.7753564194,3.94555029414,9.61565836156
3.00828705823,12.6875363658,2.82129308964,9.71612585264
2.87586342359,11.6897163123,2.78703588514,13.4465933437
8.03343978896,6.3118962587,2.59277868065,12.4070608348
-10.5989838457,0.484076205135,2.13852147616,1.25752832586
-0.321407480315,3.30625615158,0.384264271659,1.70799581693
0.276168885048,5.72843609802,0.800007067162,5.888463308
-3.93625474959,1.10061604445,0.295749862671,1.73893079907
-2.99867838423,-4.98720400911,-0.71850734183,-0.200601709852
-1.80110201886,0.854975937331,1.97723545368,3.55986578122
-1.0435256535,-0.0828441162303,1.36297824918,3.92033327229
-3.39594928814,0.619335830204,0.978721044685,0.880800763367
-5.70837292277,-10.1484842234,-0.105536159808,-1.96873174556
-5.65079655741,-7.63630427692,2.0802066357,-0.448264254487
-1.79322019204,-9.50412433048,-1.0440505688,0.872203236587
-7.60564382668,-12.071944384,-1.85830777329,-2.71732927234
-7.67806746132,-6.8797644376,-2.46256497779,-3.24686178127
-2.03049109596,-6.02758449116,-1.42682218229,-4.83639429019
-10.3529147306,-10.7954045447,-1.17107938678,-3.75592679912
-11.6353383652,-10.3232245983,-1.48533659127,-4.17545930805
1.70223800014,-4.10104465185,0.560406204226,0.0950081830247
10.6598143655,-8.65886470541,-0.193851000266,1.1954756741
2.06739073086,-4.77668475897,2.57189179524,0.175943165171
-7.68503290377,-1.95450481254,6.00763459074,4.20641065624
-5.04745653841,-6.3323248661,4.20337738625,1.16687814732
0.890119826952,-7.85014491966,1.97912018175,1.70734563839
1.12769619232,1.64203502678,4.16486297725,8.52781312946
0.715272557678,2.69421497322,1.94060577276,10.5282806205
1.11284892304,-8.34360508035,0.166348568266,5.67874811161
8.01042528841,-11.9514251339,2.21209136377,8.27921560268
-2.25199834623,-3.35924518747,3.74783415927,8.41968309376
0.825578019132,-6.30706524103,2.28357695478,3.88015058483
1.38315438449,-4.91488529459,2.62931975028,7.9306180759
-3.67926925014,-5.33270534815,3.49506254579,5.61108556698
0.338307115224,-1.28052540171,2.23080534129,7.25155305805
-1.99411651941,-10.8883454553,-0.013451863204,5.93202054912
9.66345984595,-4.72616550884,0.132290932303,8.04248804019
-1.66896378868,-11.1339855624,0.278033727805,4.42295553127
-2.59138742332,-16.471805616,1.07377652331,0.56342302234
1.84618894204,-14.7896256695,1.01951931882,-2.02610948659
-7.8162346926,-13.5074457231,0.545262114319,0.254358004487
-2.90865832723,-11.6952657766,0.441004909822,-1.10517450444
-1.93108196187,-15.5730858302,0.0567477053301,-4.29470701337
-3.70350559651,-22.8509058838,0.852490500831,-9.76423952229
-6.23592923114,-18.1287259373,1.62823329634,-7.34377203122
-8.55835286578,-19.4465459909,0.453976091841,-4.97330454015
0.0392234995852,-18.3443660445,0.419718887344,-2.93283704907
-3.30320013505,-20.122186098,0.745461682851,-2.522369558
-3.37562376969,-18.6200061516,0.451204478355,-2.52190206693
2.32195259567,-26.6178262051,-1.39305272614,-3.36143457586
-9.27047103896,-23.1656462587,-1.94730993063,-3.74096708478
-0.352894673601,-17.3734663123,-2.20156713513,-2.04049959371
-6.08531830824,-16.5812863658,-1.53582433963,-0.400032102636
0.682258057132,-25.8291064194,-2.53008154412,-7.92956461156
-7.44016557751,-25.346926473,-2.69433874862,-6.84909712049
-0.712589212144,-20.5847465265,-1.80859595311,-1.41862962942
12.0649871532,-16.9325665801,-0.972853157607,0.911837861656
5.42256351858,-19.7403866336,-1.6271103621,0.422305352729
3.09013988395,-23.8682066872,-2.3513675666,-1.8972271562
-1.34228375069,-21.1760267408,-0.625624771095,0.283240334875
-4.19470738533,-22.6438467943,-1.51988197559,-1.50629217405
0.852868980033,-16.9816668479,-0.394139180087,-3.31582468298
4.3104453454,-26.1694869014,-1.56839638458,-5.71535719191
-4.03197828924,-34.137306955,-3.45265358908,-7.95488970083
-6.43440192387,-30.1351270086,-0.356910793573,-6.31442220976
-2.81682555851,-17.9229470621,2.44883200193,1.17604528131
-3.57924919315,-16.2807671157,2.77457479744,3.05651277239
-6.65167282779,-17.6585871693,1.90031759294,0.0869802634602
0.205903537579,-23.9764072228,0.436060388445,1.99744775453
-0.606520097059,-29.2242272764,-1.58819681605,0.997915245606
-0.0789437316926,-13.0320473299,0.507545979453,7.00838273668
6.26863263367,6.8901326165,-0.82671122504,4.68885022775
11.066208999,18.2923125629,-1.50096842953,2.27931771883
2.0537853644,19.5944925094,-1.15522563403,0.449785209899
1.55136172976,23.1366724558,-0.499482838524,1.60025270097
9.54893809512,34.2288524023,1.59625995698,5.63072019204
12.2865144605,30.2810323487,-2.32799724752,2.19118768312
7.41409082585,31.2932122951,-0.952254452011,0.0916551741907
0.161667191212,25.6653922416,-1.17651165651,-2.40787733474
1.93924355658,29.177572188,-2.330768861,1.69259015634
10.0768199219,29.4597521344,-1.2850260655,0.51305764741
-2.0256037127,31.7919320809,-0.499283269994,-3.68647486152
0.711972652669,35.6141120273,0.546459525511,-4.30600737044
0.469549018031,30.8362919738,0.472202321016,-3.72553987937
0.167125383396,29.8184719202,0.637945116523,-6.4450723883
-0.485298251242,34.6806518666,0.203687912024,-4.56460489722
-4.62772188588,27.6228318131,-4.43056929247,-6.66413740615
-9.58014552051,32.4150117595,-3.05482649697,-3.97366991508
-1.24256915515,22.557191706,-3.30908370146,-8.443202424
-5.67499278979,19.8593716524,-2.76334090596,-7.27273493293
-0.607416424427,29.8215515988,-0.0875981104509,-5.54226744186
-5.30698401163,-4.30054505813,-4.27272892443,-3.35461482558
-7.71200936184,-4.89510955524,-4.60342044727,-3.3521516492
-4.00703471205,-4.18967405236,-2.93411197012,4.09031152719
-6.59206006226,-14.0842385495,-6.31480349296,-1.80722529642
0.652914587532,-7.23880304659,-5.56549501581,-1.73476212003
-3.55211076268,-4.7933675437,-4.93618653865,-3.85229894365
-4.54713611289,-9.56793204082,-6.86687806149,-5.85983576726
-6.1121614631,-13.4224965379,-5.21756958433,-4.93737259087
-16.8171868133,-7.67706103505,-3.27826110718,-4.73490941449
-4.45221216352,-9.38162553217,-3.07895263002,-6.1324462381
-8.04723751373,-0.276190029283,-2.09964415287,-2.97998306171
-1.02226286394,2.8792454736,-1.79033567571,3.77248011468
-1.50728821415,-7.07531902352,-3.51102719855,-1.54505670894
-1.80231356436,-7.73988352063,-3.5617187214,-3.19259353255
0.122661085425,1.88555198225,-0.91241024424,0.519869643837
-4.27236426478,-1.45901251486,-3.48310176708,-2.73766717978
-7.77738961499,-6.03357701198,-3.71379328993,-4.69520400339
-2.19241496521,-9.4881415091,-4.92448481277,-7.642740827
-1.87744031542,-7.69270600621,-4.36517633561,-5.52027765061
7.64753433437,-0.73727050333,-3.02586785846,-1.17781447423
-1.59749101584,-3.76183500044,-4.1765593813,-3.22535129784
10.4074836339,-2.43639949756,-3.26725090415,-4.00288812145
-7.10754171626,-2.90096399468,-2.16794242699,-4.23042494507
-3.82256706647,-9.32552849179,-3.75863394983,-3.79796176868
6.75240758332,-9.61009298891,-4.47932547268,-2.80549859229
4.11738223311,-2.26465748602,-3.12001699552,-3.1630354159
3.9823568829,-0.829221983142,-3.15070851837,-1.26057223952
9.10733153269,-2.11378648026,-2.57140004121,1.90189093687
4.91230618248,-3.60835097737,-2.55209156405,-0.755645886743
16.1972808323,12.9670845255,1.08721691311,3.98681728964
9.36225548206,3.4125200284,-2.18347460974,-1.98071953397
2.45723013185,9.07795553128,-0.804166132581,2.45174364242
-0.937795218364,-5.10660896584,-4.60485765543,-4.04579318119
-4.97282056858,-3.85117346295,-2.86554917827,-5.18333000481
-4.30784591879,1.45426203993,-1.79624070111,-3.39086682842
0.127128731005,15.5496975428,1.57306777604,2.96159634797
2.47210338079,5.7851330457,0.252376253196,1.84405952435
-0.832921969417,4.01056854858,2.55168473036,2.58652270074
6.55205268037,8.86600405147,3.39099320751,8.24898587713
9.16702733016,6.42143955435,1.94030168467,6.17144905352
-6.24799802005,13.0668750572,3.31961016183,4.9039122299
5.46697662974,9.50231056012,3.17891863898,11.2363754063
-2.46804872047,-0.752253936997,3.01822711614,7.25883858268
7.88692592932,-0.246818434112,3.63753559329,-0.468698240936
1.65190057911,5.49861706877,4.57684407045,0.183764935451
9.9268752289,8.82405257166,4.0361525476,2.46622811184
-4.17815012131,3.52948807454,3.76546102476,-1.93130871177
3.40682452848,9.79492357742,5.88476950192,3.37115446461
1.78179917826,9.7903590803,5.05407797907,6.973617641
12.5067738281,10.2457945832,4.46338645623,6.25608081739
3.57174847785,12.2412300861,4.73269493339,5.16854399377
-2.46327687237,11.156665589,5.53200341055,4.32100717016
-9.09830222258,-3.18789890816,3.6513118877,-1.88652965345
2.55667242721,3.09753659473,4.22062036486,-0.384066477066
5.39164707701,6.71297209761,5.13992884201,5.80839669932
-0.703378273207,5.14840760049,3.42923731917,2.48085987571
10.4315963766,11.4938431034,3.93854579633,5.4833230521
17.0465710264,2.84927860626,4.45785427348,6.60578622848
0.581545676163,3.43471410915,7.17716275064,5.46824940487
-3.64347967405,15.700149612,8.77647122779,8.22071258126
2.69149497574,7.81558511492,5.75577970495,3.78317575764
0.49646962553,4.9810206178,4.43508818211,3.82563893403
-11.8585557247,5.57645612068,3.76439665927,1.23810211042
-5.66358107489,-9.25810837643,-0.556294863578,-5.45943471319
-2.2186064251,0.227327126453,1.04301361358,1.76302846319
5.25636822469,6.94276262934,2.43232209073,5.23549163958
-9.69865712553,4.86819813222,4.01163056789,-1.29204518403
9.16631752426,3.9436336351,3.45093904504,-1.34958200765
2.73129217406,-2.17093086201,2.3002475222,-0.547118831258
5.64626682385,10.3545046409,5.58955599936,8.42534434513
9.96124147363,10.8999401438,4.52886447651,10.9278075215
-1.74378387658,3.73537564664,5.66817295367,1.6802706979
-13.0988092268,-3.29918885048,4.63748143083,-3.34726612571
-0.133834576995,-1.63375334759,4.60678990799,-1.48480294932
6.44114007279,4.21168215529,6.83609838514,4.14766022706
-4.10388527742,3.56711765817,5.7454068623,0.650123403451
-1.81891062763,-4.53744683894,3.23471533945,-4.10741342016
1.04606402216,-8.80201133606,4.16402381661,-1.11495024377
-1.02896132805,-3.64657583318,5.81333229376,0.547512932613
1.76601332174,-2.21114033029,4.69264077092,0.419976109
18.2009879715,1.0442951726,3.97194924808,3.86243928539
5.97596262132,-3.31026932452,2.56125772523,0.444902461774
-3.40906272889,-1.19483382164,4.84056620239,0.457365638161
-3.8540880791,0.380601681245,4.87987467955,2.46982881455
-5.81911342931,-4.22396281587,2.1691831567,-3.11770800906
-3.69413877953,2.25147268701,4.19849163386,3.43475516732
7.96083587026,4.4269081899,4.88780011102,5.20721834371
-3.79418947994,-0.257656307222,3.40710858817,0.629681520097
-6.69921483015,-1.68222080433,3.11641706533,-1.23785530352
-2.38424018037,5.41321469855,3.84572554248,1.42460787287
-7.87926553058,3.98865020143,2.72503401964,1.33707104926
3.23570911921,0.894085704316,2.07434249679,2.11953422565
1.540683769,-4.1004787928,1.60365097395,-6.45800259797
-13.2943415812,-1.47504328991,2.53295945111,-8.75553942158
-1.84936693142,2.55039221297,2.60226792827,-2.29307624519
6.86560771837,5.95582771585,2.03157640542,2.73938693119
1.82058236816,4.54126321874,0.930884882579,4.71185010758
-2.15444298205,3.31669872162,0.370193359737,3.51431328397
-4.02946833226,-11.9878657755,-3.03049816311,-5.53322353964
1.96550631753,-11.1924302726,-3.01118968595,-6.18076036326
4.94048096732,1.62300523027,0.788118791203,1.20170281313
-12.8045443829,-2.23155926684,0.0374272683584,-4.20583401048
7.9404302669,-5.69612376396,-0.363264254484,-3.6233708341
1.41540491669,-0.230688261076,-0.973955777328,-1.02090765771
-3.58962043353,-1.13525275819,-2.31464730017,-0.978444481322
-2.55464578374,7.61018274469,-0.515338823014,3.68401869507
9.25032886606,2.92561824758,-3.57603034586,3.01648187145
5.69530351584,-18.5889462495,-8.9867218687,-8.07105495216
0.52027816563,-8.90351074666,-5.63741339155,-4.41859177577
-2.45474718458,-6.13807524377,-3.52810491439,-3.96612859939
-0.119772534788,-0.0726397408871,-2.96879643723,-1.173665423
-2.314797885,7.022795762,-3.99948796007,2.74879775339
-5.92982323521,-1.69176873512,-5.75017948292,-0.428739070225
5.31515141458,2.76366676777,-3.02087100576,5.77372410616
4.72012606437,2.21910227065,-4.28156252861,5.77618728255
-0.0848992858409,2.67453777354,-5.31225405145,-0.611349541064
2.96007536395,-3.89002672358,-4.04294557429,-0.628886364676
-3.20494998626,0.975408779301,-2.39363709714,6.03357681171
-6.57997533647,-9.18915571782,-3.42432861998,-2.5939600119
6.31499931332,3.02627978507,-1.19502014282,3.35850316448
11.0599739631,0.0317152879543,-3.65571166567,5.80096634087
-6.19505138711,-2.43284920916,-5.42640318851,-4.32657048274
-13.7200767373,-8.37741370628,-9.49709471136,-5.63410730635
3.13489791247,-6.13197820339,-5.7477862342,0.758355870033
-4.62012743774,3.26345729949,-3.36847775705,0.83081904642
-3.74515278795,-7.21110719763,-7.58916927989,-7.27671777719
-6.51017813816,-12.4956716947,-8.26986080273,-17.1542546008
-7.64520348837,-10.9702361919,-6.68055232557,-12.5617914244
2.74666787792,-10.577903343,-3.29356831395,-4.90907340116
-2.72882467724,-2.32133695179,-3.1313135472,-1.96137514878
-6.82431723241,-7.15477056056,-3.94905878045,-3.1436768964
-6.15980978757,-5.15820416933,-1.94680401369,-4.36597864402
-6.27530234274,-1.5716377781,0.405450753064,-4.47828039164
-9.9707948979,-9.94507138688,-1.08229448018,-9.22058213926
-12.9462874531,-4.56850499564,-0.600039713427,-6.17288388688
3.23821999177,-7.53193860442,-3.11778494667,-5.6151856345
1.64272743661,-6.02537221319,-4.27553017992,-4.94748738212
0.587234881441,-7.19880582196,-3.59327541316,-7.30978912974
-5.44825767372,-8.10223943073,-2.5610206464,-5.95209087736
2.01624977111,1.8243269605,0.001234120351,1.31560737502
2.05075721595,2.86089335172,-0.946511112896,-0.896694372599
7.99526466079,-6.02254025704,-2.19425634614,-2.38899612022
-0.770227894376,-3.75597386582,0.0479984206177,-1.16129786784
-2.65572044954,5.47059252541,2.16025318737,2.08640038454
3.80878699529,-2.01284108336,-2.27749204587,2.39409863692
16.2932944401,3.56372530787,-3.40523727912,2.2617968893
4.37780188497,4.6002916991,0.867017487639,7.22949514168
4.3723093298,4.94685809033,1.48927225439,11.9471933941
11.0968167746,3.41342448156,0.641527021151,9.46489164645
20.7513242195,11.5599908728,3.7137817879,10.6025898988
8.90583166431,16.196557264,4.48603655466,17.0902881512
6.48033910915,8.56312365524,1.80829132141,10.9479864036
2.47484655399,10.2496900465,4.81054608817,10.765684656
9.13935399882,5.8162564377,3.19280085493,9.24338290835
