-5.47112645348,-0.228161337203,2.6393241279,-6.80882994187
-1.43479596799,-5.70229954449,1.5288278818,-6.5281926101
-3.6384654825,-9.04643775178,0.688331635687,-10.1175552783
-0.602134997014,-8.04057595907,-0.822164610422,-7.15691794658
-0.695804511528,-8.94471416635,1.10733914347,-11.3362806148
-3.29947402604,-8.97885237365,2.95684289736,-9.62564328306
0.336856459449,-4.26299058093,2.00634665125,-2.73500595129
-1.43681305506,-3.68712878822,4.17585040514,-5.40436861953
-1.20048256957,-6.83126699551,3.96535415903,-6.85373128777
-5.41415208409,-4.3954052028,0.0848579129261,-7.85309395601
-4.3978215986,-2.52954341008,-2.18563833318,-5.00245662425
-5.63149111311,-6.17368161737,-0.496134579293,-5.17181929249
-6.93516062763,-4.94781982466,0.00336917459845,-4.47118196072
-7.96883014214,-1.58195803195,2.33287292849,-3.19054462896
-8.45249965665,-4.20609623924,0.242376682381,-5.5299072972
-8.12616917116,-5.44023444653,0.0518804362728,-6.29926996544
-5.15983868567,-1.20437265381,1.51138419016,-0.208632633676
-7.33350820018,-1.6785108611,-0.439112055945,-1.07799530192
-8.9271777147,-2.49264906839,-1.90960830205,-3.21735797016
-6.35084722921,1.77321272432,0.759895451838,-2.44672063839
-2.98451674372,-0.220925482969,1.57939920573,-0.756083306631
-3.94818625823,-0.0750636902558,2.87890295962,-0.935445974872
-6.86185577275,-1.94920189754,1.16840671351,-4.74480864311
3.43447471274,7.73665989517,0.577910467403,4.33582868865
-1.46919480177,6.12252168788,2.34741422129,2.06646602042
-5.92286431628,2.38838348059,3.45691797519,0.107103352177
2.42346616921,4.8842452733,2.63642172908,2.79774068394
0.359796654695,-1.37989293399,1.32592548297,-4.7716219843
4.46612714018,-3.46403114127,0.51542923686,-2.44098465254
4.07245762567,-0.408169348557,-0.285067009249,0.409652679224
0.418788111157,0.297692444154,-0.805563255358,-1.94970998901
1.80511859665,-1.98644576313,-1.82605950147,0.760927342748
0.111449082135,3.71941602958,-0.766555747576,2.91156467451
5.13777956762,2.98527782229,-0.337051993684,3.30220200627
2.09411005311,3.201139615,-0.617548239793,2.66283933803
-1.6495594614,2.89700140771,-1.8580444859,0.813476669795
1.01677102409,3.00286320043,-2.98854073201,0.374114001555
-1.10689849042,-2.34127500686,-4.18903697812,-3.45524866668
-0.360568004937,-2.08541321415,-4.81953322423,-3.71461133492
-1.08423751945,-2.24955142144,-4.81002947034,-2.61397400316
4.03209296604,-0.953689628728,-4.87052571645,1.2366633286
-6.73157654847,-6.79782783602,-6.07102196255,-5.52269933964
-7.96524606298,-7.87196604331,-5.16151820866,-9.14206200788
-8.0689155775,-8.68610425059,-5.74201445477,-8.30142467611
-6.29258509201,-7.13024245788,-5.97251070088,-10.4407873444
-4.30625460652,-1.52438066517,-4.84300694699,-3.79015001259
-1.42992412104,-2.71851887246,-5.6635031931,-0.319512680828
-1.12359363555,-0.932657079746,-2.59399943921,0.261124650933
2.06273684994,-2.59679528703,-0.484495685316,4.54176198269
2.63906733543,1.66906650568,-1.36499193142,6.20239931446
4.14539782092,2.10492829839,-1.06548817753,8.34303664622
9.4617283064,-3.1292099089,-2.06598442364,5.15367397798
6.60805879189,0.646651883813,0.45351933025,1.15431130974
7.85438927738,-1.50748632347,-0.346976915859,3.7349486415
9.21071976287,3.39837546924,0.00252683803228,5.06558597327
2.76705024836,3.15423726195,0.452030591923,3.28622330503
4.47338073385,2.79009905466,1.31153434581,3.64686063679
4.79971121933,6.91596084737,2.11103809971,7.54749796855
0.966041704818,7.35182264008,2.8105418536,9.63813530031
5.03237219031,11.8676844328,3.42004560749,9.28877263207
6.8987026758,16.6835462255,3.80954936138,12.4894099638
10.5150331613,13.7094080182,5.06905311527,14.9800472956
12.0713636468,13.6552698109,3.80855686916,17.1306846274
11.5476941323,16.4011316036,4.10806062305,14.4813219591
17.5740246177,15.0069933964,2.05756437694,13.2419592909
5.36035510324,10.3728551891,1.53706813084,10.4025966226
-1.69331441128,6.83871698178,1.07657188473,7.35323395441
7.51301607421,6.87457877449,-1.08392436138,9.35387128617
9.1993465597,9.7904405672,0.0855793925093,10.7245086179
0.765677045187,10.5463023599,0.995083146401,11.5151459497
1.99200753067,9.40216415263,-0.0254130997082,13.6257832815
5.19833801617,9.34802594534,1.30409065418,7.34642061321
0.944668501652,7.24388773805,-0.316405591925,4.02705794498
0.02099898714,5.53974953076,-1.18690183803,5.30769527674
1.79732947263,6.31561132347,2.62260191586,8.1983326085
5.30365995811,3.27147311619,2.23210566975,5.41896994026
5.3099904436,1.8773349089,1.01160942364,6.53960727202
4.63632092909,3.21319670161,0.491113177532,8.76024460379
2.32265141458,-0.35094150568,-0.509383068577,4.28088193555
5.03898190007,-1.87507971297,-2.08987931469,4.08151926731
2.79531238556,-4.98921792025,-2.37037556079,0.782156599067
-6.52835712896,-7.72335612754,-0.770871806903,-3.18720606917
1.19797335653,-4.73749433483,0.238631946988,-1.49656873741
6.30430384202,-3.80163254212,-1.33186429912,-0.755931405649
6.07063432751,-0.88577074941,-1.68236054523,2.98470592612
4.99696481299,1.9500910433,-0.42285679134,3.46534325788
9.85329529848,2.23595283601,-1.70335303745,6.13598058964
6.98962578397,-1.97818537127,-3.13384928356,0.796617921398
6.35595626946,-3.83232357856,-2.51434552967,0.117255253164
6.59228675495,0.153538214156,-1.41484177577,3.87789258493
14.1586172404,4.48940000687,2.01466197812,7.43852991669
4.60494772592,3.78526179958,2.11416573201,6.10916724845
5.40127821141,0.41112359229,0.0436694859,3.24980458021
8.6776086969,5.586985385,3.09317323979,6.12044191197
9.02393918239,4.28284717771,0.442676993683,5.30107924373
-5.48973033213,5.03870897042,0.162180747574,1.80171657549
1.67660015336,0.894570763136,2.86168450146,1.41235390726
9.20293063885,4.20043255585,1.75118825536,4.92299123901
8.72926112434,2.64629434856,0.550692009248,5.65362857078
1.49559160983,4.45215614127,0.700195763139,1.67426590254
3.05192209531,2.07801793399,0.52969951703,2.8949032343
0.568252580801,-0.816120273303,0.0692032709212,1.00554056606
2.34458306629,-0.170258480593,0.0987070248129,-1.94382210217
-10.1790864482,0.35560331212,-0.901789221296,-0.613184770413
-6.72275596274,0.391465104833,-0.622285467405,-0.00254743865298
-3.40642547725,2.21732689754,0.0772182864866,1.88808989311
-0.210094991759,-0.576811309744,-0.603277959623,-1.84127277513
-3.46376450627,-1.17094951703,-1.53377420573,-4.00063544336
-7.29743402078,-3.04508772432,-2.23427045184,-4.3499981116
-6.3211035353,-2.38922593161,-1.19476669795,-7.50936077984
-10.3947730498,-2.5733641389,1.04473705594,-5.22872344808
-5.01844256432,-4.40750234618,1.21424080983,-6.13808611632
-1.85211207883,-5.13164055347,0.753744563724,-8.89744878456
-4.60578159335,-2.74577876076,1.05324831762,-4.0568114528
0.900548892143,-3.28991696805,-3.04724792849,-4.45617412103
-1.18312062237,-4.50405517534,-3.4677441746,-7.64553678927
-2.41679013688,-8.68819338263,-0.90824042071,-8.70489945751
-9.16045965139,-7.28233158991,-0.00873666681855,-9.45426212575
-12.0741291659,-9.77646979721,0.340767087073,-12.003624794
-7.40779868042,-5.96060800449,1.24027084096,-7.72298746223
-12.6914681949,-0.244746211782,2.56977459485,-5.03235013046
-8.98513770944,-6.50888441907,1.43927834875,-10.2117127987
-5.68880722395,-4.66302262636,0.538782102638,-7.61107546694
-7.89247673846,-2.69716083365,0.948285856529,-7.29043813518
-6.50614625298,-8.40129904093,-0.58221038958,-13.5998008034
-6.80981576749,-5.95543724822,-0.352706635688,-10.9091634717
-8.473485282,-8.32957545551,1.9767971182,-10.2385261399
-8.47715479652,-10.2837136628,2.23630087209,-7.69788880813
-15.1549382267,-3.91782340116,1.96104651162,-2.66360101745
-10.7851151346,-0.855506546417,1.50768849569,-3.82020400339
-7.97529204244,-0.553189691676,1.47433047976,-3.51680698934
-6.83546895028,-2.41087283694,1.33097246383,-3.15340997528
-4.54564585813,-2.59855598219,0.6776144479,-3.48001296123
-2.07582276598,0.523760872551,1.31425643197,0.913384052827
-2.50599967382,1.0060777273,0.890898416038,1.70678106688
-8.29617658167,4.21839458204,2.86754040011,0.440178080935
-5.58635348951,3.92071143678,3.24418238418,-2.98642490502
-2.36653039736,0.223028291522,2.11082436825,0.416972109044
-0.586707305207,0.775345146267,0.637466352314,-0.709630876903
-3.05688421306,-0.462337998993,-1.02589166362,-3.09623386285
-3.1770611209,-1.29002114425,-1.83924967955,-0.712836848797
3.18276197125,-0.897704289509,-2.11260769548,-2.57943983474
0.00258506340469,3.81461256523,-0.805965711411,2.14395717931
-10.7075918444,2.48692941998,0.170676272659,-1.20264580663
4.12223124771,6.80924627472,0.637318256727,4.26075120742
5.32205433986,3.16156312947,1.0539602408,4.76414822148
0.351877432018,4.8538799842,0.800602224865,1.21754523553
2.49170052417,1.06619683895,0.807244208934,-1.62905775042
-0.958476383676,-1.68148630631,-0.516113806997,-5.57566073636
-1.27865329152,1.84083054843,-0.519471822928,0.627736277693
-5.59883019937,9.38314740318,2.97717016114,7.00113329175
-0.129007107214,3.29546425792,0.843812145209,4.7145303058
0.660815984938,-10.8822188873,-3.73954587072,-6.03207268014
2.82063907709,-11.0199020326,-1.35290388665,-7.22867566609
1.68046216924,-6.93758517785,-1.47626190258,-7.77527865204
-0.789714738603,-5.62526832311,-1.63961991852,-6.67188163798
-1.68989164645,-8.65295146837,-1.56297793445,-7.55848462393
2.5499314457,-5.44063461362,-0.606335950378,-3.07508760987
-3.05024546214,-2.46831775888,-0.319693966308,-1.32169059582
4.51957763001,-0.866000904138,-1.11305198224,0.501706418236
4.70940072216,-1.12368404939,-0.67640999817,-1.54489656771
-7.94077618568,-4.10136719465,0.680231985898,-6.65149955366
2.48904690647,-6.31905033991,0.786873969967,-8.0281025396
8.10886999862,-5.52673348517,-0.646484045964,-5.54470552555
-3.45130690922,-4.21441663043,-2.0898420619,-2.33130851149
-2.21148381707,-2.09209977568,0.0267999221733,0.0420885025633
0.868339275083,-1.87978292094,0.173441906243,-2.42451448338
-6.49183763276,-1.0574660662,-1.23991610969,-2.37111746933
1.07798545939,-2.69514921145,-3.70327412562,-3.85772045527
1.91780855155,-5.30283235672,-5.25663214155,-5.41432344122
1.1276316437,-4.70051550197,-4.63999015748,-2.27092642717
-5.20254526415,-4.68819864723,-4.04334817341,-2.21752941311
4.597277828,-2.63588179248,-1.87670618934,-1.40413239906
4.38710092016,-2.37356493774,-1.69006420528,-1.510735385
11.6269240123,0.838751916999,-0.953422221207,2.81266162905
16.7767471045,-0.978931228256,-1.83678023714,3.11605864311
8.49657019662,-2.91661437351,-2.02013825307,3.70945565716
-0.113606711231,-3.88429751877,-2.413496269,1.66285267121
8.92621638093,-1.27198066403,-1.47685428493,-0.563750314734
1.72603947308,0.350336190713,-1.35021230086,2.36964669932
5.00586256523,2.93265304546,-1.35357031679,1.98304371338
7.38568565738,1.0049699002,-1.22692833272,3.37644072743
2.52550874954,3.32728675494,-1.37028634866,5.95983774148
11.9153318417,1.27960360968,0.566355635414,8.82323475554
10.0651549338,-1.69807953557,1.78299761948,7.69663176959
1.27497802599,-2.12576268083,-0.700360396449,2.84002878365
-0.695198881851,1.70655417391,-0.64371841238,1.0534257977
-0.0353757896955,6.10887102865,1.65292357169,2.85682281176
4.09444730246,8.2211878834,1.10956555576,7.38021982581
-1.01572960539,2.74350473814,-0.683792460172,1.73361683987
-8.77590651324,5.21582159288,1.6328495239,3.17701385392
0.183916578917,7.37813844763,2.28949150797,7.81041086797
9.82373967107,6.90045530237,4.07613349203,5.78380788203
-8.48643723677,7.85277215711,2.5927754761,3.60720489608
4.65338585537,9.25508901185,4.47941746017,3.68060191014
-1.79679105247,7.3674058666,3.73605944424,1.43399892419
-0.666967960315,8.22972272134,3.21270142831,8.57739593824
-5.31714486816,7.29203957608,3.11934341238,6.8207929523
3.41267822399,5.93435643083,2.21598539645,5.73418996635
2.10250131614,6.69667328557,0.662627380515,5.65758698041
3.4823244083,1.24899014031,0.389269364585,5.78098399446
-0.457852499549,-0.248693004949,0.745911348653,3.70438100852
-3.1880294074,1.64362384979,0.712553332723,2.64777802257
8.15179368476,4.89594070454,1.21919531679,4.73117503662
1.60161677691,7.16825755928,2.10583730086,4.02457205068
-1.22856013094,0.440574414024,0.532479284929,2.64796906473
2.03126296122,-0.487108731235,0.769121268998,2.55136607879
-0.438913946629,1.13520812351,-0.394236746934,3.23476309284
0.720909145522,3.85752497825,0.312405237136,3.86816010689
0.640732237676,5.92984183299,0.0990472212043,2.56155712095
1.93055532983,4.58215868774,1.70568920527,5.744954135
4.83037842199,1.66447554248,1.38233118934,4.29835114906
1.80020151414,1.32679239722,0.768973173412,3.08174816311
8.26002460629,4.53910925196,-0.73438484252,7.00514517717
0.719847698445,6.14142610671,-0.0977428584511,7.83854219122
2.9396707906,6.33374296145,2.84889912562,7.94193920528
3.22949388275,7.62605981619,3.04554110969,12.3253362193
2.7493169749,3.29837667093,0.872183093756,8.60873323338
7.45914006705,2.76069352568,-0.461174922176,0.832130247436
4.94896315921,-0.0169896195803,-0.224532938107,-2.32447273851
6.67878625136,-6.12467276484,-2.10789095404,-3.84107572445
5.95860934351,-9.60235591009,-3.72124896997,-8.8576787104
4.89843243567,-3.19003905536,-1.9446069859,-3.90428169634
2.83825552782,-5.56772220061,-2.97796500183,-6.15088468229
15.34807862,-5.86540534587,-2.47132301776,-5.78748766824
-2.34209828787,-2.45308849113,-1.09468103369,-2.53409065418
5.04772480428,-1.54077163638,-0.858039049624,1.67930635987
5.88754789644,-0.408454781638,0.678602934445,1.95270337393
-4.53262901141,-5.1161379269,-0.804755081487,-5.14389961202
-1.43280591926,-3.82382107215,-1.27811309742,-5.29050259797
-4.64298282711,-4.12150421742,-1.19147111335,-8.43710558391
4.04684026505,-6.04918736267,0.85517087072,-7.37370856986
-15.0433366428,-7.12687050793,-0.0681871452116,-5.9803115558
-7.14351355064,-8.68455365318,-1.82154516114,-5.29691454175
-4.56369045849,-3.57223679844,-1.58490317707,-4.37351752769
-5.08386736634,1.0100800563,0.621738806996,-2.55012051364
-4.66404427418,-0.427603088956,0.278380791065,-0.666723499584
-2.43422118203,0.614713765783,-1.00497722487,1.15667351447
-0.344398089877,-2.10296937947,1.2516647592,0.160070528524
-6.23457499772,-2.87065252473,1.68830674327,-2.13653245743
-3.84475190557,-3.43833566999,0.80494872734,-4.00313544337
-6.71492881342,-3.39601881525,1.11159071141,-5.36973842932
-12.6251057213,-3.2237019605,-0.641767304523,-6.48634141526
-4.74528262911,0.348614894243,-0.135125320454,-3.39294440121
1.46454046304,-0.599068251013,-0.718483336384,0.200452612848
3.9143635552,4.62324860373,0.548158647684,2.6938496269
-2.86581335265,6.31556545847,4.38480063175,3.83724664096
-5.5059902605,1.65788231321,2.94144261582,0.720643655011
0.873832831658,2.12019916796,1.23808459989,-2.37595933093
-7.42634407619,-1.3974839773,0.0247265839598,-6.01256231688
-6.22652098404,0.854832877441,-0.158631431971,-1.14916530282
-6.00669789188,-0.492850267816,-0.791989447903,0.584231711226
-1.07687479973,0.729466586927,0.00465253616676,-2.74237127472
-3.00705170758,-3.20821655833,-2.08870547976,-5.45897426067
-2.20722861543,-4.53589970359,-2.9620634957,-4.66557724661
-4.05740552327,-3.04358284885,-1.18542151163,-1.59218023256
-6.93440043603,-6.01786700581,-1.98102834302,-8.02898619187
-5.6015161772,-11.4133398187,-3.55042897935,-12.1610887715
-8.68863191836,-9.00881263161,-3.35982961569,-7.96319135118
-3.26574765952,-5.96428544451,-2.26923025202,-5.38529393083
-0.402863400694,-9.94975825741,-3.18863088834,-6.92739651049
-11.2699791419,-10.9452310703,-1.98803152468,-7.89949909014
-0.217094883021,-10.9107038832,-3.36743216101,-6.3116016698
-9.54421062419,-9.76617669611,-2.65683279734,-10.0737042495
-14.2013263653,-9.64164950901,-2.50623343367,-11.0658068291
-9.77844210652,-8.15712232191,-1.25563407,-7.53790940877
-6.87555784768,-2.31259513481,-0.195034706328,-1.82001198842
-13.3626735888,-3.61806794771,-0.874435342658,-4.73211456808
-6.88978933001,-5.97354076062,-1.28383597899,-7.89421714774
-7.58690507117,-3.18901357352,-2.96323661532,-6.55631972739
-2.29402081234,6.47551361358,0.407362748351,0.901577692952
-3.2611365535,2.17004080068,1.13796211202,0.559475113296
-8.58825229467,-5.30543201222,-2.56143852431,-3.20262746636
-5.50536803583,-4.51090482512,-3.73083916064,-5.90473004602
-5.53248377699,0.573622361979,0.689760203029,-6.98683262567
-6.62959951816,-2.03185045092,-0.999640433301,-6.47893520533
-7.01671525932,-3.45732326382,-1.31904106963,-6.82103778498
-5.34383100049,-1.05279607672,-0.718441705962,-4.21314036464
-7.50094674166,0.82173111038,0.102157657709,-0.575242944295
-3.63806248282,-0.583741702521,-1.29724297862,-2.63734552395
-2.50517822399,-3.91921451542,-1.27664361495,-2.52944810361
-6.13229396515,-4.00468732832,-0.346044251282,-4.21155068326
-2.46940970631,-4.97016014122,-1.98544488761,-4.41365326292
0.65347455252,-2.14563295413,-2.10484552394,-3.72575584257
1.58635881136,3.22889423298,-2.28424616027,-0.287858422231
11.0792430702,1.23342142007,0.696353203397,2.03003899812
3.74212732902,0.0079486071736,0.466952567066,-1.06206358154
2.98501158786,3.86247579427,3.23755193074,3.33583383881
9.2778958467,6.93700298137,2.9381512944,5.85373125915
10.7007801055,6.84153016847,-0.221249341926,1.51162867949
10.6536643644,11.0560573556,4.03935002174,6.97952609984
13.3965486232,11.2405845427,3.49994938541,10.8674235202
15.379432882,12.5251117298,1.90054874908,13.4053209405
15.9823171409,10.8396389169,1.78114811275,13.1132183609
17.3852013997,12.904166104,2.69174747642,13.5511157812
19.0780856585,19.6486932911,6.17234684009,19.0690132016
16.0309699174,12.7332204782,4.17294620376,14.1469106219
14.2138541762,12.1377476653,4.01354556743,11.9048080423
10.166738435,14.3322748524,4.7241449311,11.0927054626
15.4996226939,14.7468020395,3.84474429477,11.9806028829
16.7725069527,10.1113292266,2.76534365844,9.69850030328
14.7953912116,9.42585641367,4.42594302211,11.4563977236
13.3582754704,3.88038360076,3.34654238578,8.39429514397
6.56115972922,6.45491078786,4.01714174945,6.80219256432
9.90404398806,8.43943797496,4.42774111312,5.88008998466
8.2469282469,10.3939651621,3.84834047679,7.077987405
6.34981250573,4.89849234916,4.16893984046,5.70588482535
2.11269676457,6.18301953626,5.88953920413,4.94378224569
3.3155810234,9.74754672336,3.9601385678,9.16167966603
4.76846528224,8.58207391046,2.00073793147,6.55957708638
5.16134954107,7.22660109756,2.09133729514,5.28747450672
4.32423379991,4.26112828466,2.01193665881,6.37537192707
2.60711805874,5.30565547176,1.24253602248,3.82326934741
-0.889997682421,1.98018265886,-0.886864613853,2.09116676776
1.67288657641,3.78470984596,-1.27626525018,4.5890641881
4.59577083525,4.05923703306,0.0143341134863,4.13696160844
1.30865509409,5.90376422015,2.26493347716,8.62485902879
1.93153935292,5.08829140725,3.75553284083,7.12275644913
-1.34557638824,4.09281859435,2.1161322045,6.78065386948
4.10730787059,5.51734578145,1.01673156817,8.31855128982
1.80019212942,6.40187296855,1.83733093183,8.13644871017
2.35307638826,2.56640015565,1.87793029551,7.59434613051
1.83596064709,-0.0390726572477,0.568529659175,2.24224355086
5.69884490593,2.81545452985,0.649129022845,4.0901409712
-2.75827083523,-0.26001828305,-2.17027161349,1.67803839154
2.9546134236,-4.94549109595,-4.60967224982,-2.82406418811
2.01749768244,-5.14096390885,-4.68907288615,-1.55616676777
-3.95961805873,-9.79643672175,-3.23847352248,-4.06826934742
-3.78673379989,-11.9719095347,-2.82787415881,-4.18037192708
-7.72384954106,-10.7773823476,-2.31727479514,-8.41247450673
-7.62096528222,-9.13285516046,-1.80667543147,-7.14457708639
-11.1780810234,-12.5883279734,-3.0860760678,-5.80667966605
-8.45519676455,-8.26380078626,-1.77547670413,-4.8287822457
-8.12231250571,-8.69927359916,-1.92487734046,-6.83088482536
-7.63942824688,-8.89474641206,-1.92427797679,-5.53298740501
-0.516543988044,-5.33021922496,-2.02367861312,-1.38508998467
-8.41365972921,-6.70569203786,-0.51307924945,-1.70719256432
-3.25077547038,-5.64116485076,0.377520114219,0.17070485602
-3.38789121154,-5.94663766366,-2.94188052211,-3.79139772364
-1.16500695271,-12.0521104766,-4.53128115844,-7.28350030329
-3.13212269387,-11.2875832895,-1.12068179477,-6.53560288295
-5.48923843504,-10.9630561024,-1.5100824311,-5.3777054626
-8.1063541762,-11.8485289153,-1.19948306743,-4.41980804226
-4.94346991736,-6.22400172816,0.421116296237,-0.961910621914
0.0894143414735,-1.58947454106,1.09171565991,0.245986798429
-0.817701399694,-4.16494735397,-0.867684976422,1.24388421877
-5.40481714086,-4.74042016687,-1.45708561275,2.82178163912
-4.71193288202,-6.47589297976,-2.17648624908,-5.01032094054
-2.59904862319,-4.74136579267,-3.03588688541,-5.88242352019
-8.09616436435,-1.82683860556,-3.41528752174,-6.27452609985
-8.75328010552,-2.48231141847,-1.39468815808,-7.7966286795
-12.1503958467,-8.88778423137,-1.33408879441,-9.31873125916
-9.67751158784,-6.88325704427,-0.983489430735,-10.0608338388
-6.73462732901,0.46127014283,1.40710993293,-6.15293641847
-2.29174307018,-3.33420267007,-1.1722907034,-3.30503899813
-0.77885881134,-2.98967548297,-0.641691339726,-3.14714157778
-1.60597455251,1.22485170413,-1.03109197606,-1.58924415744
-3.13309029367,-2.52062110877,-2.27049261239,-4.32134673709
-2.22020603484,1.18390607833,-1.48989324872,-2.76344931675
-3.127321776,3.26843326543,-2.30929388505,-0.875551896403
3.32556248284,3.55296045253,-1.63869452138,-0.227654476061
2.76844674167,3.58748763963,0.321904842292,2.85024294429
0.321331000505,4.76201482672,2.43250420596,1.90814036463
3.98421525934,-1.89345798617,-1.07689643037,-0.173962215027
4.29709951817,3.71106920093,1.0537029333,5.31393520532
-0.720016222989,15.405596388,4.04430229697,5.26183262566
-2.73713196415,-4.86987642488,-0.49509833936,-3.10026995399
-2.29424770532,1.77465076222,1.37550102431,1.85762746635
-0.0913634464814,3.90917794932,1.58610038798,2.22552488669
0.00152081235501,5.24370513642,2.02669975165,2.33342230704
0.794405071185,7.03823232352,2.88729911532,4.56131972738
6.75728933002,11.3627595106,3.93789847899,5.22921714773
5.93017358886,8.35728669772,1.57849784266,4.06711456807
3.73305784769,0.681813884818,1.45909720633,0.255011988414
4.93594210653,0.126341071918,0.469696569998,-3.41709059124
-1.40117363464,7.94086825902,2.19029593367,-0.429193170898
-3.5482893758,5.91539544612,3.68089529734,-0.361295750554
-3.75540511696,-8.51007736678,-0.848505338993,-7.05339833021
-3.49252085813,-2.01555017968,-1.07790597532,-3.65550090986
0.230363400704,0.408977007413,-0.237306611653,-1.63760348952
-2.65675234046,-4.11649580549,-2.80670724798,-1.58970606918
3.88613191837,-5.53196861839,-4.73610788431,-2.09180864883
5.33901617721,-2.43744143129,-2.62550852064,-2.90391122849
2.96190043605,-5.98291424419,-1.37490915697,-4.02601380814
3.30757267442,-1.22234011627,-1.83858284884,1.01542877906
0.552660112622,-3.1619132542,-6.1230970461,-1.4816535147
2.16774755082,1.07851360787,-4.35761124336,1.62126419153
2.29283498902,3.18894046994,-4.14212544062,0.0241818977629
-3.35207757278,5.319367332,-4.31663963789,1.227099604
-2.66699013458,4.00979419407,-4.96115383515,3.05001731024
2.75809730361,22.7802210561,4.93433196759,14.6729350165
2.85318474181,-2.2493520818,-2.39018222967,-0.604147277292
2.84827218001,-1.27892521973,-5.09469642694,-0.0312295710573
4.78335961821,-6.04849835766,-4.2892106242,-1.33831186482
3.6484470564,-3.23807149559,-4.02372482146,-2.77539415859
-0.826465505397,13.3323553665,0.381760981278,7.13752354765
0.548621932801,0.132782228542,-3.28275321599,1.43044125388
0.733709370998,0.233209090609,-3.90726741325,1.71335896012
1.0587968092,-4.07636404732,-4.51178161051,2.53627666635
1.8838842474,3.35406281474,-2.12629580777,3.50919437259
-1.53102831441,3.36448967681,-0.620810005034,2.38211207882
-4.62594087621,-2.52508346112,-3.3253242023,2.51502978506
-5.73085343801,-1.35465659905,-2.02983839956,-2.32205250871
-2.56576599981,6.97577026301,1.85564740318,5.16086519753
5.73932143838,3.43619712508,-1.53886679408,7.85378290377
4.34440887659,9.67662398715,0.676619008654,8.85670061
-0.18050368522,13.9370508492,4.40210481139,12.0396183162
-3.40541624702,12.0874777113,3.17759061413,8.48253602247
-3.58032880882,11.4779045733,1.14307641687,4.8954537287
-7.83524137063,-4.56166856458,-4.9814377804,-2.35162856506
-4.56015393243,-5.53124170252,-2.43595197766,-9.15871085882
-5.23506649423,-0.74081484045,0.26953382508,-5.69579315259
-7.52997905603,-11.5503879784,-3.35498037218,-5.68287544635
-5.30489161783,-5.54996111631,-1.91949456945,-5.21995774012
2.04019582037,4.57046574575,-0.0440087667084,1.29295996612
2.03528325856,15.2108926078,3.24147703603,10.8058776724
2.73037069676,10.9113194699,2.21696283877,10.2687953786
5.13545813496,-3.24825366805,-1.1375513585,-0.898286915177
3.32054557316,23.452173194,10.5279344442,5.04463079106
1.80563301136,-2.86739994391,-3.05657975302,-5.71245150271
4.15072044955,-3.21697308185,-4.42109395028,-1.65953379647
5.02580788775,-2.31654621978,-3.07560814754,1.51338390976
1.15089532595,-3.37611935771,-1.90012234481,-0.243698384002
0.405982764147,2.17430750436,-0.424636542069,0.68921932223
0.171070202345,6.83473436642,0.410849260668,1.44213702847
-1.22384235945,2.24516122849,0.606335063406,-0.954945265294
-1.54875492126,6.67558809056,1.77182086614,4.24797244094
-2.69366748306,9.75601495263,4.42730666888,2.40089014718
-2.61858004486,8.4264418147,3.07279247162,1.07380785341
-1.53349260666,-1.09313132324,1.03827827436,-0.813274440356
1.12159483153,14.6772955388,9.19376407709,7.40964326588
0.506682269734,11.1777224009,4.38924987983,0.852560972115
2.10176970793,-4.70185073703,-4.01526431743,-2.68452132165
-0.0731428538711,12.008576125,5.64022148531,5.72839638459
3.76194458433,-3.0709970129,1.86570728804,-3.10868590918
0.237032022524,-2.52057015083,3.98119309078,-2.19576820294
-0.637880539278,-9.02014328877,4.92667889352,0.677149503288
0.597206898921,-7.7097164267,-3.07783530374,-1.98993279047
2.35229433712,3.77071043536,3.84765049899,1.76298491576
-0.472618224685,-0.848862702565,8.63313630173,-1.624097378
-1.55753078649,-3.0784358405,9.23862210447,-1.16117967177
-2.90244334829,-9.00800897844,2.37410790721,-15.6782619655
-6.06735591009,-13.3375821164,-2.79040629006,-4.9353442593
-0.892268471889,-11.5371552543,-6.13492048732,-6.99242655306
0.322818966306,21.6632716078,5.89056531542,10.8304911532
1.23790640451,2.36369846984,4.12605111816,7.47340885941
-1.7470061573,-13.0758746681,1.04153692089,-0.353673434354
0.158081280901,-1.10544780603,5.79702272363,5.64924427188
0.533168719099,1.99497905604,7.76250852637,1.86216197812
-0.371743842701,-5.91459408189,7.65799432911,-2.63492031565
-2.46665640451,1.31583278017,4.79348013185,-3.74200260942
-1.49156896631,-13.1737403578,0.838965934584,-6.36908490318
0.513518471893,-17.2733134957,-0.525548262679,-6.83616719695
3.44860591009,-15.6828866336,2.37993754006,-5.68324949071
8.16369334829,4.19754022844,5.5754233428,-3.55033178448
4.81878078649,-10.8320329095,1.08090914553,-4.96741407824
3.24386822468,-16.9216060474,2.26639494827,-5.644496372
-1.57104433712,-0.331179185356,10.721880751,1.92842133423
4.29404310108,-14.3807523233,4.56736655375,-4.20866095954
9.84913053927,-13.9603254612,-3.31714764352,-2.4457432533
6.20421797748,-8.40989859915,-3.25166184078,0.497174452936
4.03930541567,-1.37947173708,6.58382396196,-1.40990784083
3.31439285387,-5.54904487502,6.7393097647,-8.47699013459
-1.41051970793,-5.11861801295,4.30479556743,-1.98407242836
-3.85543226973,3.54180884912,6.49028137017,-5.39115472212
-2.48034483154,-12.6677642888,1.19576717291,-5.43823701589
-3.27525739334,-16.4573374267,0.0812529756477,-9.56531930965
-1.83016995514,-26.8269105647,-8.03326122162,-12.9024016034
-1.14508251694,-20.8464837026,-4.81777541888,-14.4994838972
2.20000492126,-6.90605684055,-1.86228961614,-7.82656619095
3.90509235946,-6.80562997848,-1.9068038134,-5.90364848471
-1.93982020235,-8.83520311641,0.838681989335,-7.03073077848
-6.84473276415,-11.5947762543,-1.28583220793,-10.9278130722
-4.25964532595,-8.49434939228,4.97965359481,-10.424895366
-1.63455788775,-11.4839225302,-5.79486060245,-12.3919776598
-6.22947044955,-16.3234956681,-5.88937479971,-13.4090599535
-7.75438301135,-2.65306880608,0.346111003024,-9.0361422473
-14.2692955732,-7.40264194401,0.571596805761,-12.1332245411
-8.24420813496,-16.4222150819,-3.7429173915,-11.1103068348
-11.0091206968,-2.64178821987,1.40256841124,-6.59738912859
-3.72403325856,13.4186386422,1.21805421397,-3.65447142236
-0.228945820367,-17.6909344957,-1.97645998329,-10.0115537161
1.81614161783,7.97949236633,-0.250974180551,2.47136399011
0.491229056028,-9.71008077161,-4.85548837781,-3.45571830366
1.37631649423,-15.9796539095,-7.52000257508,-5.39280059742
-1.91859606757,-11.7892270475,-5.79451677234,-6.79988289118
-0.993508629377,2.1211998146,1.9809690304,2.26303481505
-0.358421191177,6.58162667666,4.64645483314,3.08595252129
-2.55333375298,-13.8579464613,-7.35805936413,-9.46112977248
-1.42824631478,-5.7575195992,-3.31257356139,-3.94821206624
0.216841123416,9.45290726286,0.13291224135,3.99470563999
-1.51807143839,-1.46666587507,-1.34160195591,-2.62237665377
-4.76298400019,-1.396239013,-4.36611615317,0.830541052463
-1.73789656199,3.29418784906,-2.35063035044,-1.9465412413
-3.00280912379,3.34461471113,4.8648554523,-2.00362353507
5.8222783144,27.7650415732,3.28034125504,12.9892941712
5.9173657526,1.71546843527,-2.12417294222,7.7122118774
3.4024531908,4.31589529734,-3.39868713949,1.35512958364
5.987540629,2.0663221594,-3.00320133675,6.90804728987
3.4726280672,-1.99325097853,-7.39771553401,1.27096499611
4.0277155054,3.00717588354,-5.19222973127,3.34388270235
2.74280294359,9.76760274561,-2.39674392854,9.47680040858
4.53789038179,6.42802960767,-2.9512581258,7.41971811482
5.42297781999,20.9384564697,2.85422767694,15.682635821
5.81806525819,16.0788833318,-0.940286520323,19.6455535273
2.76315269639,26.1693101939,0.485199282413,16.9784712335
2.53824013458,10.5297370559,-5.87931491485,5.48138893976
1.98332757278,17.960163918,0.666170887889,13.394306646
-0.531584989018,10.1105907801,0.961656690627,7.56722435223
-3.61649755082,12.6010176421,3.37714249336,5.37014205846
0.118589887377,20.1814445042,-0.627371703898,16.0030597647
-1.51632267442,15.9718713663,-1.63188590116,12.6859774709
12.7372093023,3.5914389535,-2.86081395349,2.97699854651
9.96444444127,-2.53337578396,-5.22905285777,3.11896510483
10.0116795802,7.85180947858,-2.14729176204,10.2409316632
12.8889147192,10.0669947411,2.11446933368,7.52289822147
16.5461498581,9.84218000367,4.09623042941,15.4148647798
14.043384997,14.4173652662,4.33799152513,10.9768313381
9.43062013597,31.7425505288,2.83975262085,8.72879789644
5.06785527491,5.8077357913,3.39151371658,12.9207644548
0.0550904138472,-12.9670789462,0.083274812303,-2.95726898691
2.24232555279,2.89810631638,4.46503590803,0.0846975714121
5.09956069173,-0.706708421072,4.99679700375,5.86666412973
5.34679583067,2.77847684147,-1.74144190052,4.30863068805
5.27403096961,2.13366210401,-4.4896808048,-1.06940275362
8.64126610855,3.19884736656,0.192080290924,-2.7374361953
14.5685012475,8.8540326291,3.56384138665,8.31453036302
15.3857363864,-0.400782108358,1.32560248237,5.23649692134
13.4829715254,15.3744031542,1.1273635781,2.91846347967
9.50020666431,0.10958841673,8.67912467382,4.85043003799
9.53744180324,-6.13522632073,-3.84911423045,-3.40760340369
9.78467694218,-15.1900410582,-6.24735313473,-9.25563684536
10.0219120811,-10.1148557956,-7.74559203901,-6.43367028704
9.77914722007,-3.6096705331,2.33616905672,-5.77170372872
11.086382359,-6.47448527055,1.29793015244,-11.5497371704
8.71361749794,-3.90930000801,0.629691248166,-3.18777061207
7.04085263688,22.8458852545,12.6714523439,4.78419594625
6.38808777582,-28.1689294829,-5.08678656039,-8.80383749543
6.42532291476,-5.21374422038,-2.65502546466,-12.3018709371
2.5125580537,-0.928558957832,0.496735631064,-7.61990437879
1.20979319264,15.2966263047,2.25849672679,-1.64793782046
-2.30297166842,4.99181156725,1.27025782251,0.784028737864
-2.68573652948,7.96699682979,-3.06798108176,6.59599529619
-6.91850139054,-10.5478179077,-1.55621998604,-11.0720381455
-7.8812662516,11.8973673549,4.32554110969,-0.0400715871692
-6.67403111266,6.08255261743,3.48730220541,-2.71810502885
-5.40679597372,-1.72226212003,2.69906330113,0.553861529475
-2.70956083478,1.91292314251,4.60082439686,-2.6041719122
-3.60232569584,-15.1418915949,-3.29741450742,-8.16220535388
-2.6950905569,-4.7067063324,-6.69565341169,-3.31023879556
-0.50785541796,0.258478930144,-3.99389231597,-2.82827223724
1.58937972098,-20.6263358073,-8.67213122025,-13.7963056789
0.246614859916,0.138849455227,-0.520370124521,1.59566087941
-1.88615000114,7.87403471777,-1.3686090288,1.17762743773
-4.0089148622,-14.0607800197,-2.49684793307,-5.65040600394
-4.10167972326,-26.0855947571,-8.44508683735,-7.38843944562
-12.3344445843,-3.1304094946,1.11667425838,-8.9864728873
-11.7772094454,2.07477576795,0.6684353541,-4.10450632897
-11.5599743064,-5.44003896951,-1.49980355018,-3.40253977065
-7.4027391675,-11.944853707,-1.81804245445,-4.36057321233
-9.68550402856,-11.7696684444,-2.06628135873,-7.04860665401
-8.30826888962,4.72551681812,6.175479737,-3.28664009568
-11.9510337507,-16.9592979193,-5.00275916728,-12.2646735374
-12.6037986117,-13.1841126568,-5.99099807155,-11.922706979
-16.3665634728,-8.00892739425,-2.66923697583,-7.42074042072
-14.9593283339,-3.13374213171,0.142524119894,-9.84877386239
-16.1720931949,-2.70855686917,-2.78571478438,-2.68680730407
-14.904858056,-6.18337160662,-2.05395368866,2.57515925425
-17.027622917,4.90181365592,5.49780740707,0.527125812576
-13.7203877781,2.66699891847,-5.41043149721,1.7890923709
-13.8831526392,-12.307815819,-6.26867040148,-3.44894107078
-12.3959175002,-5.27263055645,-1.53690930576,-3.15697451245
-10.0486823613,2.3925547061,2.10485178996,1.57499204587
0.498552777648,15.4877399686,4.62661288569,15.9969586042
-6.39421208341,-2.12707476882,-1.12162601859,4.00892516251
-5.49697694447,-3.25188950627,-1.45986492286,1.29089172083
-12.5197418055,-9.24670424373,-0.978103827139,2.50285827916
-15.8325066666,-3.59151898119,3.87365726858,-0.465175162521
-15.4552715277,4.97366628136,-1.04458163569,-4.4932086042
-17.8280363887,-6.5611484561,-2.97282053997,-7.57124204588
-13.9208012498,2.52403680644,-2.20105944424,-5.79927548755
-14.6635661108,-6.82077793101,0.970701651482,-3.93730892923
-11.6763309719,-3.51559266847,-2.24753725279,-0.125342370906
-14.759095833,-17.2804074059,-7.14577615707,-7.24337581258
-14.811860694,-4.67522214339,-2.52401506135,-3.17140925426
-6.83462555508,-6.25003688084,-3.60225396562,-3.80944269594
-11.6473904161,-0.634851618295,0.459507130103,-2.52747613762
-10.6001552772,-10.4096663558,-0.258731774173,-8.17550957929
-10.7829201383,-6.92448109321,-0.576970678448,-5.01354302097
-12.0356849993,0.450704169336,1.70479041728,6.54842353736
-10.8084498604,2.43588943188,2.146551513,3.70039009568
-7.66121472144,4.40107469442,3.96831260872,8.312356654
-6.8439795825,5.20625995697,2.85007370445,9.30432321232
-7.69674444356,7.59144521951,2.82183480017,4.24628977064
-5.57950930462,5.08663048205,1.6535958959,5.96825632897
-3.43227416568,15.7918157446,4.37535699162,10.5002228873
-1.42503902674,0.637001007137,-0.582881912655,3.02218944561
-3.5978038878,15.0021862697,7.69887918307,11.4741560039
1.86943125114,4.49737153222,1.9306402788,7.03612256226
3.72666639008,-0.0874432052333,-1.37759862548,4.60808912058
7.12390152902,19.3077420573,2.52416247024,9.5800556789
5.91113666796,10.2729273199,5.04592356597,9.32202223723
2.9783718069,-5.0618874176,-2.55231533831,6.51398879555
-1.11439305416,14.6732978449,0.279445757415,0.0659553538717
0.932842084781,3.91848310749,0.41120685314,4.33792191219
5.85007722372,7.20366837003,2.93296794886,9.39988847052
6.86731236266,7.59885363257,2.61472904459,9.48185502884
4.1145475016,9.81403889511,3.63649014031,4.45382158716
9.23178264054,0.759224157657,0.568251236036,6.14578814548
12.8490177795,5.4244094202,0.520012331761,9.65775470381
8.14625291841,6.67959468274,4.18177342749,6.13972126213
4.12348805735,8.12477994529,2.30353452321,5.72168782045
3.2707231963,2.08996520783,-1.16470438107,2.82365437878
9.54795833524,1.99515047037,-0.392943285341,4.9756209371
8.06519347418,5.24033573292,4.25881781038,3.48758749542
4.33242861311,-2.54447900454,-1.57942109389,1.88955405374
5.39966375205,3.110706258,1.74234000183,8.11152061207
8.99689889099,-1.34410847945,1.98410109756,4.54348717039
11.4241340299,5.81107678309,7.99586219328,2.54545372871
9.12136916887,-2.48373795436,0.657623289004,0.827420287034
9.58860430781,10.2914473082,-2.79061561527,2.04938684536
8.77583944675,-3.16336742928,0.431145480452,-0.958646596318
10.4930745857,-0.418182166737,1.27290657618,2.063319962
9.82030972463,4.25700309581,5.5146676719,3.97528652033
3.24754486357,11.2021883584,4.08642876762,6.01725307865
2.16478000251,5.8373736209,0.25818986335,-2.58078036303
3.41201514145,-12.8074411166,-3.68004904093,-4.55881380471
2.20925028039,-11.222255854,1.1017120548,-7.14684724638
6.31648541933,-2.06707059147,0.783473150522,-2.77488068806
6.75372055827,10.5381146711,3.81523424625,3.26708587026
7.85095569721,-4.70670006639,-0.323004658028,-5.42094757141
10.7781908361,-7.70151480384,0.548756437694,-3.59898101309
12.0254259751,-1.6863295413,3.27051753342,3.07298554523
6.40266111403,5.70885572124,-4.69772137086,-9.32504789645
4.87989625297,-10.7259590162,-3.73596027513,-13.0230813381
3.11713139191,-2.23077375367,-5.73419917941,-4.7011147798
5.18436653084,-1.99558849113,-5.60243808368,-6.90914822148
7.57160166978,1.84959677142,-3.35067698796,-6.96718166316
2.87883680873,-11.945217966,-8.57891589224,-7.40521510483
-2.57392805233,-7.7200327035,-3.26715479651,-10.4732485465
-4.58450581395,11.5362281977,3.01590479651,-4.27704215117
-6.92444100782,-5.99547052394,-0.337158172728,-9.15867706808
-5.4843762017,-0.107169245552,-1.49022114196,-7.01031198499
-10.8843113956,-7.37886796717,-1.1932841112,-13.1619469019
-9.58424658945,1.92943331121,1.77365291956,-6.90358181881
-9.38418178332,9.58773458959,2.25058995033,0.444783264276
-11.8141169772,2.04603586798,-1.18247301891,-3.57685165263
-7.44405217107,3.77433714636,2.10446401185,-3.28848656955
-8.04398736495,8.77263842474,2.76140104262,-4.32012148646
-7.66392255883,0.980939703128,0.688338073381,-6.22175640337
-5.2638577527,-9.91075901849,-0.704724895855,-5.41339132028
-11.8937929466,6.30754225989,2.56221213491,-5.59502623719
-10.4637281404,9.93584353827,9.02914916567,-3.5866611541
-7.01366333432,-3.75585518334,-2.00391380356,-13.528296071
-7.8335985282,-2.88755390496,-5.1269767728,-2.77993098792
-7.36353372207,-6.22925262658,-1.36003974204,-10.1415659048
-6.50346891595,1.37904865181,1.84689728873,-6.65320082174
-9.60340410982,5.52734993019,2.97383431949,-3.25483573865
-7.5033393037,3.54565120858,0.700771350253,-4.80647065556
-5.17327449757,0.183952486957,-1.46229161898,-5.44810557247
-0.453209691448,0.33225376534,1.85464541178,0.540259510617
-2.88314488532,-5.84944495628,0.321582442544,-4.5813754063
-0.323080079197,19.9588563221,2.02851947331,5.53698967679
-1.19301527307,-1.35284239951,-3.06454349593,0.795354759881
-2.03295046695,-8.58454112113,-1.79760646516,-6.28628015703
2.03711433918,-13.7562398427,-4.7006694344,-12.2579150739
-5.0028208547,2.97206143564,2.75626759636,-6.22954999085
-6.58275604857,-5.30963728598,3.00320462713,-9.00118490776
-6.04269124244,-11.8613360076,-3.46985834211,-10.4728198247
-6.92262643632,-8.74303472921,0.0770786886542,-4.93445474158
-2.3225616302,-13.1847334508,0.264015719417,-3.03608965849
-1.17249682407,-4.40643217245,2.37095275018,0.562275424596
-0.322432017943,-4.12813089407,-1.04211021906,-3.25935949231
4.11763278818,-6.68982961568,-0.745173188292,-4.49099440923
9.2376975943,1.1484716627,-3.32823615753,2.58737067386
6.40776240043,-3.75322705891,-4.55129912676,-1.38426424305
3.09782720655,-18.5449257805,-5.884362096,-9.10589915996
4.08789201268,-2.37662450215,0.672574934762,-2.50753407687
2.90795681881,11.2916767762,8.38951196553,-0.249168993778
5.14802162493,-9.19002194538,-5.70355100371,1.50919608931
5.28808643106,9.108279333,-3.70661397295,2.6475611724
4.97815123718,-25.4534193886,-6.59967694218,-6.83407374451
3.26821604331,-9.42511811024,-2.55273991142,-7.88570866142
5.63828084943,-6.70681683185,-1.66580288066,3.42265642167
6.18834565556,5.00148444653,1.85113415011,8.30102150476
2.94841046168,-5.32021427509,0.158071180871,2.83938658785
3.59847526781,-2.9819129967,0.345008211634,1.62775167093
2.37854007393,-7.90361171832,-3.6280547576,1.00611675403
5.28860488005,0.934689560061,1.92888227316,6.68448183711
13.1586696862,11.6029908384,-3.38418069607,9.0528469202
12.0087344923,-4.04870788317,-3.59724366531,10.4512120033
9.74879929843,-13.4904066048,-6.95030663455,1.71957708638
8.79886410456,-4.20210532641,-0.653369603784,0.90794216947
6.18892891068,-2.94380404802,-0.37643257302,7.38630725256
8.69899371681,-14.1955027696,-3.49949554226,1.86467233565
6.52905852293,-8.57720149125,-3.96255851149,1.86303741874
7.31912332906,7.44109978713,-0.865621480729,5.84140250183
9.04918813518,4.05940106551,-1.55868444997,6.25976758492
5.40925294131,7.50770234389,-0.201747419202,9.94813266801
6.32931774743,2.87600362227,-2.85481038844,1.9964977511
7.94938255356,14.3743049007,-2.17787335767,14.8448628342
6.40944735968,-11.077393821,-2.44093632691,4.76322791728
6.61951216581,10.2609074574,5.63600070385,9.05159300037
4.76957697194,15.1492087358,2.02293773462,12.2899580835
8.09964177806,2.68751001419,-1.41012523462,2.89832316654
11.7297065842,2.29581129257,-2.56318820386,4.77668824963
13.2097713903,-15.065887429,-7.96625117309,10.0750533327
7.30983619643,10.7724138493,-4.97931414233,7.18341841581
2.48990100256,7.29071512772,1.66762288843,11.2317834989
9.88996580868,12.7990164061,5.3145599192,13.130148582
8.98003061481,4.69731768449,4.25149694996,18.1585136651
10.8700954209,31.9556189629,4.97843398072,23.3568787482
8.35016022706,6.35392024125,-0.984628988511,11.6952438313
6.72022503318,5.18222151964,0.722308042253,13.1636089143
8.24028983931,4.64052279802,2.69924507302,17.3219739974
14.3103546454,3.3688240764,-1.02381789622,15.2903390805
13.4404194516,10.4971253548,3.09311913454,20.5787041636
11.7004842577,-6.14457336683,1.29005616531,12.5770692467
14.1005490638,16.3537279116,3.19699319607,14.1154343298
8.72061386994,1.05202918993,1.10393022683,1.33379941288
6.44067867606,-6.55966953169,-0.209132742402,0.392164495974
0.0607434821868,6.0886317467,-0.0221957116382,8.44052957906
1.34080828831,21.0469330251,6.27474131913,14.3588946622
8.69087309444,6.33523430347,3.84167834989,11.0472597452
6.96093790056,0.12353558185,2.41861538065,8.45562482833
6.05100270668,13.9518368602,8.55555241142,14.4239899114
9.31106751281,15.2601381386,9.45248944218,15.2923549945
4.74113231894,11.008439417,1.54942647294,10.2607200776
2.75119712506,2.22674069538,2.47636350371,8.77908516069
6.96126193119,9.41504197376,7.33330053447,11.4874502438
-2.19867326269,3.64334325214,6.16023756523,3.83581532686
-0.738608456566,-3.92835546947,6.117174596,0.644180409956
-0.708543650435,-11.2900541911,-0.485888373239,-4.94745450696
-6.76847884431,-0.841752912704,1.73104865753,0.210910576134
-5.61841403819,-3.55345163432,3.19798568829,5.88927565922
-6.57834923206,8.68484964406,4.25492271905,4.87764074231
-4.88828442594,10.1031509224,4.10185974982,1.4360058254
-6.33821961981,3.90145220083,1.18879678058,1.86437090849
-6.01815481369,-2.01024652079,-0.104266188657,0.652735991582
-2.50809000756,6.38805475759,1.06267084211,0.741101074669
-6.49802520144,-11.123643964,-4.42039212713,-6.93053384224
-13.5379603953,-5.21534268564,2.95654490363,-9.61216875915
-7.04789558918,-9.93704140725,-5.6165180656,-5.30380367606
-8.67783078306,-4.85874012888,-2.62958103484,-2.68543859297
-7.41776597693,-2.38043885049,1.41735599592,-4.67707350988
-7.41770117081,2.87786242789,2.47429302669,-6.57870842679
-7.36763636468,-18.7638362937,-3.74876994255,-16.0803433437
-3.06757155856,-4.80553501534,2.37816708822,-0.121978260613
-10.6875067524,-9.30723373696,-7.60489588102,-11.5236131775
-10.1374419463,-6.27893245858,-4.90795885026,-7.05524809444
-3.76737714019,-0.900631180193,-4.65102181949,-10.5868830114
-2.52731233406,-14.3323299018,-2.68408478873,-17.2985179283
4.15275247206,1.86597137657,-1.88714775797,-3.53015284517
-6.34718272181,-6.72572734505,2.1897892728,-10.0117877621
-10.7171179157,-2.30742606666,-0.443273696439,-10.463422679
-5.81705310956,7.13087521172,-0.636336665675,-3.7150575959
-6.70698830343,13.0491764901,2.08060036509,0.193307487189
-5.02692349731,-0.642522231516,-1.09246260415,-7.39832742972
-5.53685869118,-3.29422095313,1.80447442662,-10.9799623466
-1.79679388506,3.02408032525,-2.74858854262,-9.19159726354
-8.62672907893,-4.42761839636,-2.11165151186,-10.0932321805
0.25333572719,-4.52931711798,1.49528551891,-12.4648670974
-0.836599466682,-4.2710158396,0.24222254967,-12.5265020143
-2.44653466056,-3.83271456121,-1.76084041957,-3.85813693119
-2.08646985444,0.895586717168,-1.1239033888,-5.1097718481
-6.09640504831,-2.22611200445,-3.52696635804,-11.641406765
-9.86634024218,-13.7878107261,-5.55002932728,-19.5330416819
-13.3762754361,-2.82950944769,-1.74309229651,-11.3546765988
-3.95669420402,-1.01410437975,1.99435615001,-3.45768161553
-6.23178771501,-4.9225763458,-0.684297162857,-7.22099964316
-3.77688122599,-3.45104831185,1.80704952427,-1.87431767079
