5.34625363372,7.73697311047,-13.0283648256,11.8876090116
12.9241595804,6.49782171306,-12.5794929386,7.99642004096
5.98206552715,4.43867031565,-11.6406210516,4.37523107031
0.779971473863,2.11951891825,-12.4917491645,0.914042099655
-0.672122579424,-0.0296324791652,-13.4028772775,-1.187146871
-6.70421663271,1.04121612343,-13.9240053905,-0.518335841658
-3.366310686,-1.64793527398,-15.3451335035,-1.91952481231
-1.85840473929,2.66291332861,-13.6462616165,-1.59071378297
0.489501207428,2.5937619312,-13.1773897294,0.848097246377
1.36740715414,-0.245389466209,-13.5785178424,-2.52309172428
0.565313100855,9.29545913638,-11.3896459554,2.92571930507
2.65321904757,3.18630773897,-10.2507740684,1.96453033441
4.11112499428,0.687156341563,-10.0519021814,-0.556658636244
-5.31096905901,-2.45199505585,-11.6430302944,-2.1678476069
-1.89306311229,-0.681146453255,-8.73415840735,2.30096342244
-1.52515716558,2.12970214934,-8.01528652033,1.20977445179
3.13274878113,7.91055075193,-5.82641463331,5.54858548113
3.76065472784,9.54139935452,-3.9775427463,7.62739651048
3.94856067456,9.20224795711,-3.99867085928,7.58620753982
11.9464666213,11.6430965597,-4.41979897226,8.81501856917
14.664372568,8.03394516229,-4.84092708525,5.08382959851
5.7922785147,4.05479376488,-4.10205519823,1.55264062785
2.94018446141,2.86564236747,-2.43318331121,-0.798548342798
-1.10190959188,-2.72350902993,-3.36431142419,-1.84973731346
-2.08400364516,-4.78266042734,-4.01543953718,-3.37092628411
-4.28609769845,-1.76181182475,-2.58656765016,-5.49211525476
-10.6781917517,0.509036777838,-1.10769576314,-3.43330422542
1.84971419497,-2.06011461957,-3.07882387613,-6.62449319608
-7.24237985831,-4.80926601698,-2.15995198911,-7.29568216673
-7.3944739116,-2.28841741439,0.0489198979085,-5.15687113739
-6.51656796489,1.8224311882,1.54779178493,-2.77806010804
-4.63866201817,3.02327979079,1.90666367194,-2.0692490787
-5.08075607146,-3.14587160662,0.655535558961,-4.28043804936
-9.29285012475,-5.60502300403,0.724407445978,-6.40162702001
-7.72494417803,-6.86417440143,2.013279333,-4.54281599067
-5.25703823132,-2.62332579884,2.33215122001,-2.60400496132
-5.78913228461,-2.57247719625,3.16102310703,-1.48519393198
-3.7512263379,1.95837140634,5.56989499405,3.21361709737
-5.89332039118,-0.820779991071,6.26876688106,0.71242812671
-6.15541444447,-0.889931388479,7.44763876808,-2.21876084395
-5.56750849776,2.69091721411,9.3965106551,1.1600501854
-2.29960255104,-2.6382341833,7.98538254211,-1.66113878526
-5.11169660433,-5.71738558071,6.24425442913,-5.57232775591
-5.15379065762,-3.82653697811,6.24312631615,-2.81351672656
-3.1758847109,3.70431162448,8.03199820317,0.375294302776
-1.04797876419,-2.06483977293,5.62087009018,-3.30589466788
4.34992718252,-2.15399117034,5.5097419772,0.0429163614681
3.78783312924,-2.85314256775,8.40861386422,-2.12827260918
4.75573907595,-2.07229396516,8.45748575123,-0.599461579845
6.91364502266,-2.59144536257,7.18635763825,1.6293494495
11.9915509694,0.139403240022,6.46522952527,3.26816047885
11.7494569161,1.88025184261,7.89410141228,5.29697150819
7.8873628628,-0.518899554796,9.2429732993,5.74578253753
5.18526880951,-3.6980509522,9.30184518632,0.804593566882
-3.54682524377,-2.08720234961,10.9607170733,-0.0665954037759
-5.43891929706,-3.49635374702,9.97958896035,-2.51778437443
-1.68101335035,-2.00550514443,9.25846084737,-3.12897334509
1.20689259636,-0.394656541841,11.4473327344,1.94983768426
-2.56520145692,-1.02380793925,12.3662046214,5.5486487136
-4.40729551021,0.0270406633408,12.9750765084,5.07745974295
-2.0393895635,-1.32211073407,13.9139483954,1.39627077229
-0.891483616782,5.06873786852,14.6428202825,5.32508180163
-1.89357767007,2.91958647111,15.1816921695,4.43389283098
-2.91567172336,-3.00956492629,14.0905640565,-2.46729613968
-0.117765776644,0.841283676295,13.3994359435,1.53151488967
2.35014017007,1.28213227889,13.2183078305,0.140325919016
3.87804611678,2.01298088148,12.0971797175,2.39913694836
-8.74404793651,-0.156170515931,12.3860516046,3.4079479777
-1.76614198979,-2.66532191334,11.0049234916,4.68675900705
3.87176395692,0.595526689251,11.1337953786,4.59557003639
0.969669903632,0.666375291843,11.8326672656,-0.125618934264
3.80757585035,2.15722389443,10.1315391526,1.66319209508
5.18548179706,-2.45192750298,9.77041103964,1.56200312442
4.29338774377,-3.86107890039,11.0492829267,-0.11918584623
4.32129369049,-7.77023029779,10.0681548137,-2.93037481689
-4.2308003628,-6.9093816952,9.10702670069,-4.63156378755
2.29710558391,-0.198533092613,10.3158985877,-0.2927527582
0.805011530625,-10.52768449,7.42477047473,-4.20394172885
-0.977082522662,-5.41683588743,7.65364236175,0.974869300495
-3.73917657595,-4.92598728484,7.67251424876,-3.89631967017
-3.22127062924,-6.96513868225,6.47138613578,-5.61750864082
-0.113364682524,-4.19429007966,5.9302580228,-3.73869761147
0.404541264188,-3.54344147707,5.83912990981,-3.01988658213
1.4224472109,-4.73259287448,3.42800179683,-3.15107555279
-1.16964684239,-7.28174427188,0.386873683849,-2.10226452344
-5.76174089567,-4.65089566929,1.16574557087,-2.1734534941
5.10616505104,0.929952933298,2.71461745788,-1.83464246475
7.74407099775,-6.99919846411,-0.106510655101,-5.42583143541
4.37197694447,-9.64834986152,-0.307638768083,-4.51702040606
-2.66011710882,-5.59750125893,0.0112331189339,-3.14820937672
1.83778883789,-7.90665265634,-1.64989499405,-2.63939834737
2.91569478461,-2.34580405375,-0.331023107032,-1.52058731803
1.56360073132,0.335044548843,0.0478487799865,0.718223711316
1.45150667803,-5.03410684856,-0.153279332997,-6.36296525934
-4.55058737526,-7.98325824597,-0.464407445979,-10.47415423
-2.40268142854,-4.92240964338,0.494464441035,-7.74534320065
-2.70477548183,-6.38156104079,-1.22666367195,-5.69653217131
0.783130464883,-8.2607124382,-0.57779178493,-6.06772114196
5.6610364116,-5.86986383561,-0.748919897913,-3.02891011262
1.92894235831,-1.75901523302,-0.280048010894,0.319900916726
-2.66315169498,0.561833369571,-1.82117612388,-0.0612880539302
3.28475425174,-2.05731802784,-4.13230423686,-5.51247702459
-0.90733980155,-8.24646942524,-5.51343234984,-7.41366599524
-2.12943385484,-5.63562082266,-4.61456046283,-3.9248549659
-1.46152790812,-4.25477222006,-5.60568857581,-4.14604393655
-1.07362196141,-1.48392361747,-7.00681668879,-4.81723290721
1.3242839853,-3.36307501488,-10.1579448018,-7.83842187786
3.25218993201,-3.77222641229,-9.37907291476,-3.93961084852
3.08009587873,2.8386221903,-6.56020102774,2.51920018083
0.44800182544,4.24947079289,-5.51132914072,4.30801121017
-1.64409222785,5.23031939548,-4.86245725371,1.33682223951
1.42381371887,14.4311679981,-2.92358536669,8.95563326886
0.821719665579,9.02201660066,-3.45471347967,8.26444429821
0.24962561229,8.88286520326,-3.67584159266,6.83325532755
2.507531559,9.64371380585,-4.19696970564,6.83206635689
-1.62456249428,9.95456240844,-8.30809781862,4.82087738624
4.28334345243,2.82541101103,-9.8292259316,1.15968841558
-0.0187506008551,8.83625961362,-6.99035404459,3.09849944493
-0.200844654142,-2.12289178379,-10.3014821576,-3.02268952573
1.34706129257,3.8679568188,-9.53261027055,3.05612150361
-1.43503276072,5.22880542139,-9.78373838354,2.27493253296
0.352873185995,7.25965402398,-9.42486649652,1.92374356231
-4.37922086729,5.53050262657,-9.6659946095,2.75255459165
-4.93131492058,8.93135122916,-9.55712272248,5.92136562099
-2.10340897387,10.4921998318,-10.6082508355,7.62017665034
5.90449697285,8.34304843435,-12.5793789485,10.0589876797
0.492402919559,7.87389703694,-13.2705070614,7.71779870903
-7.13969113373,5.16474563953,-13.3116351744,2.19660973837
2.70714026163,4.72305232558,-4.53963299419,8.41063590115
6.63703396815,-2.08419062443,-6.2810856242,8.05664335743
3.77692767465,0.338566425564,-6.64253825421,5.99265081371
1.95682138116,-2.11867652445,-5.54399088423,7.87865826999
-0.313284912327,3.34408052554,-1.85544351424,11.5246657263
2.15660879418,2.85683757553,-1.28689614425,12.7006731825
3.59650250069,6.09959462553,0.811651225735,12.7766806388
2.2163962072,9.63235167552,3.52019859572,14.8426880951
1.98628991371,12.2551087255,3.62874596571,13.9486955514
3.12618362022,3.3678657755,-1.08270666431,12.3247030077
4.32607732673,-3.82937717451,-4.45415929432,4.34071046396
3.17597103324,-8.40662012452,-6.95561192433,-0.913282079764
7.78586473975,-1.60386307453,-3.66706455434,5.22272537652
4.75575844626,-3.07110602454,-5.29851718436,3.8687328328
3.98565215277,-4.20834897455,-5.38996981437,4.07474028908
0.25554585928,-3.57559192456,-3.80142244438,3.37074774536
-4.27456043421,-0.622834874564,-2.85287507439,-0.243244798356
-0.774666727702,-2.72007782457,-4.35432770441,-5.08723734208
0.665226978808,0.172679225416,-4.05578033442,-0.761229885797
6.55512068532,-5.74456372459,-5.17723296443,-2.22522242952
-0.704985608172,-7.7718066746,-4.18868559445,-6.26921497323
0.354908098339,-10.2790496246,-5.86013822446,-3.53320751695
-0.195198195153,-5.82629257462,-6.11159085447,-3.87720006067
-5.92530448864,-6.08353552463,-6.77304348449,-4.47119260439
-5.11541078213,-7.13077847464,-6.0344961145,-5.62518514811
-5.54551707562,5.10197857535,-2.74594874451,0.820822308171
-7.37562336911,-12.4852643747,-6.92740137452,-6.50317023555
-11.0757296626,-2.08250732467,-2.67885400453,-6.62716277927
-4.9358359561,-3.61975027468,-3.70030663455,-8.57115532298
-5.24594224958,-6.58699322469,-5.49175926456,-10.8151478667
-5.05604854307,-8.17423617469,-2.60321189457,-9.53914041042
-0.736154836564,2.2085208753,1.86533547541,-2.24313295414
-4.32626113005,6.07127792529,0.6838828454,-2.74712549786
0.313632576454,-9.56596502472,-3.33756978461,-8.70111804158
-7.40647371704,1.30679202527,-0.409022414624,-3.4451105853
-6.68658001053,-5.11045092474,-1.30047504464,-4.23910312902
-3.88668630402,6.67230612525,1.58807232535,2.06690432726
2.40320740249,-2.52493682476,-2.85338030466,-4.24708821646
-2.746898891,-9.40217977477,-7.41483293468,-12.1310807602
-7.51700518449,-6.42942272478,-4.46628556469,-8.90507330389
-5.72711147798,0.683334325215,1.6622618053,-4.30906584761
-2.96721777147,5.3860913752,3.66080917528,-3.40305839133
-3.06732406496,4.22884842519,2.84935654527,-1.45705093505
-1.58743035845,-11.3283945248,-1.64209608474,-8.37104347877
-5.75753665194,-5.82563747482,1.09645128525,-8.59503602249
-6.59764294543,-0.00288042483226,2.70499865523,-6.1690285662
-7.58774923892,3.07987662516,3.86354602522,-5.11302110993
-5.27785553241,-8.57736632485,0.312093395209,-12.7470136536
-1.8679618259,-4.46460927486,1.93064076519,-6.79100619736
-2.79806811939,17.8281477751,9.01918813518,2.67500125892
-1.60817441288,-1.09909517488,2.24773550517,-4.2089912848
-3.67828070637,-2.56633812489,3.78628287516,-5.04298382852
-2.54838699986,8.6364189251,7.65483024514,-0.876976372238
-3.29849329335,-4.39082402491,4.28337761513,-7.80096891596
-6.77859958684,5.25193302509,10.5419249851,-2.42496145968
-4.53870588033,9.03469007508,9.30047235511,3.5710459966
0.501187826178,4.20744712507,7.21901972509,1.13705345289
1.58108153269,-1.54979582494,2.32756709508,-3.85693909083
4.3009752392,6.74296122505,3.53611446507,-0.110931634554
3.01086894571,-6.39428172496,-0.575338164947,-3.07492417827
4.97076265222,4.47847532503,2.57320920504,-3.22891672199
1.15065635873,-8.27876762498,-0.858243424973,-10.5029092657
1.45055006524,5.84398942501,5.87030394502,0.0130981905713
-4.18955622826,-6.373253525,-0.571148684996,-7.87089435315
-5.27966252175,4.08950352499,4.34739868499,-2.03488689686
-2.80976881524,9.55226057498,9.89594605498,2.96112055942
-2.68987510873,5.37501762497,9.72449342496,1.2071280157
0.490018597784,-7.53222532503,5.29304079495,-6.20686452802
1.88991230429,-0.129468275043,7.22158816494,-3.20085707174
2.1898060108,8.14328877495,8.16013553492,1.92515038454
3.19969971731,-6.40395417506,2.28868290491,-3.02884215918
7.52959342382,1.95880287493,2.7372302749,-1.6128347029
11.5194871303,19.5815599249,8.54577764489,8.47317275338
11.4993808368,31.7443169749,9.84432501488,16.0591802097
6.20927454335,-4.7529259751,3.86287238486,0.0151876659438
1.90916824986,8.79983107489,11.6614197548,2.95119512223
1.84906195637,10.5425881249,10.6799671248,2.80720257851
4.58895566288,-9.83465482513,2.02851449482,-4.11678996521
6.80884936939,2.03810222486,4.17706186481,-2.18078250893
3.4187430759,9.51085927485,9.3256092348,0.775224947352
0.968636782409,0.463616324845,6.24415660478,-2.72876759637
7.66853048892,6.23637337484,7.72270397477,0.857239859914
6.30842419543,15.0491304248,9.84125134476,0.933247316192
3.70831790194,-0.188112525182,3.29979871475,-3.17074522753
5.61821160845,10.0046445248,8.19834608473,4.93526222876
5.08810531496,15.5574015748,6.89689345472,11.221269685
0.557999021468,-8.70984137521,3.61544082471,-0.532722858683
2.55789272798,5.46291567478,7.35398819469,3.6632845976
8.86778643449,0.105672724772,0.472535564682,-0.650707946119
5.597680141,-3.89157022524,-1.71891706533,3.09529951016
5.57757384751,-3.45881317525,1.80963030466,4.67130696644
6.81746755402,0.943943874745,5.34817767464,3.44731442272
9.26736126053,-0.143299075264,1.32672504463,8.95332187901
6.90725496704,10.2794579747,8.14527241462,11.6393293353
4.07714867354,-1.76778497528,6.40381978461,2.30533679157
0.327042380055,5.23497207471,8.46236715459,6.05134424785
6.25693608657,-9.3322708753,-2.30908547542,-3.13264829587
5.32682979308,-8.20951382531,-4.14053810543,-2.46664083959
4.26672349958,4.60324322468,-1.19199073545,4.52936661669
1.45661720609,-0.983999725328,0.91655663454,5.14537407297
2.1665109126,-7.61124267534,-5.45489599547,-3.24861847074
0.966404619114,-5.41848562535,-5.42634862549,-4.51261101447
-3.05370167438,0.264271424643,1.8621987445,-1.31660355819
-2.48380796787,20.2270284746,6.65074611449,7.9694038981
-4.48391426136,-11.3702144754,-2.09070651552,-6.48458864562
-1.21402055485,6.60254257462,2.71784085446,7.25141881066
-0.334126848338,0.235299624608,-3.38361177555,4.01742626694
1.53576685817,-5.3619433254,-2.19506440556,1.36343372322
-2.61433943532,7.51081372459,-1.41651703557,7.1194411795
-0.68444572881,1.70357077458,-1.02796966559,8.04544863578
-0.2745520223,6.58632782457,-0.579422295601,7.40145609206
1.57534168421,2.11908487456,-2.32087492561,4.52746354834
2.40523539072,-4.17815807545,-1.89232755562,4.42347100462
0.495129097229,8.16459897454,0.206219814363,12.3294784609
-1.57497719626,-0.342643975466,-7.59523281565,6.96548591719
-4.38508348975,10.3401130745,2.82331455434,5.84149337347
-3.36518978324,4.83287012451,-3.58813807568,1.34750082975
-2.23529607673,-3.81437282549,-8.92959070569,0.223508286028
-6.56540237022,-2.3616157755,-7.2510433357,-0.660484257693
-8.41550866371,-13.8888587255,-10.3124959657,-7.92447680141
-5.5456149572,-18.9061016755,-13.0339485957,-4.49846934513
-4.92572125069,-9.60334462553,-11.1954012257,-5.80246188885
-4.58582754418,-13.2005875755,-12.6668538558,-8.92645443257
-1.75593383767,-3.91783052555,-9.42830648577,-6.95044697629
-4.22604013117,-11.1750734756,-11.3897591158,-6.82443952001
-6.32614642466,-2.14231642557,-9.15121174579,-2.12843206372
-3.67625271815,-0.619559375577,-7.2526643758,0.0975753925559
-5.94635901163,-12.2568023256,-11.9241170058,-5.14641715116
-2.65295058139,-19.1200799419,-5.64429505815,-12.4470566861
1.09399303013,-0.404029224268,0.473250434896,-2.02542488785
1.78093664164,-7.66797850668,-6.56920407206,4.10620691035
5.64788025316,0.788072210908,-4.02165857902,0.647838708563
8.03482386468,1.58412292849,-6.57411308598,-4.42052949323
15.2117674762,-13.8498263539,-8.32656759294,-3.25889769503
8.04871108771,-23.2137756363,-8.3890220999,-2.89726589682
2.92565469923,-8.94772491874,-2.72147660685,-5.30563409861
-0.427401689247,-1.71167420115,-1.60393111381,-4.07400230041
-0.500458077729,-6.40562348356,-3.15638562077,-4.7423705022
2.58648553379,-10.979572766,-9.23884012773,-2.320738704
1.75342914531,-8.66352204839,-5.93129463469,-6.33910690579
0.300372756825,-20.7774713308,-6.94374914164,-7.69747510759
-0.242683631659,-11.5314206132,-3.7962036486,-3.24584330938
-5.49574002014,1.63463010438,-2.29865815556,-6.17421151118
-3.22879640862,-0.969319178033,0.718887337478,-0.312579712972
-1.4418527971,7.86673153955,4.75643283052,6.10905208523
-0.904909185587,-17.3872177429,-7.09602167644,-7.67931611656
-0.847965574067,-3.67116702527,-3.7884761834,-2.04768431835
-2.75102196255,5.58488369232,0.659069309646,-0.456052520149
-4.58407835103,6.51093440991,1.61661480269,-1.52442072194
-8.98713473951,2.0269851275,4.80416029573,0.897211076259
-3.990191128,11.0430358451,4.49170578877,1.00884287446
4.45675248352,9.66908656267,5.19925128181,5.19047467267
4.52369609504,7.90513728026,4.07679677486,12.1721064709
0.920639706559,0.16118799785,-0.975657732104,3.86373826908
7.34758331808,-0.482761284562,1.55188776094,6.32537006729
5.33452692959,28.293289433,13.839433254,19.6470018655
3.50147054111,-3.93065984939,0.956978747021,1.6186336637
-1.53158584737,-2.4946091318,-0.00547575993733,-1.5297345381
-2.94464223585,0.981441585793,-0.677930266897,0.0618972601078
1.23230137567,2.79749230338,2.53961522615,-0.446470941686
-4.92075501282,6.96354302097,2.61716071919,-1.13483914348
-1.8838114013,13.8295937386,3.53470621223,8.18679265473
1.95313221022,-7.72435554385,2.41225170527,-1.02157554707
-0.0399241782616,-1.65830482627,0.379797198313,-2.17994374886
0.387019433256,0.537745891321,1.91734269135,1.87168804934
-1.06603695523,15.6937966089,8.3948881844,9.63331984755
-0.699093343706,5.1098473265,3.11243367744,6.26495164575
3.88785026781,9.52589804409,3.61997917048,6.50658344396
6.07479387933,11.7419487617,2.09752466352,6.37821524217
2.78173749085,2.91799947926,5.02507015656,13.5098470404
0.0486811023657,2.99405019685,3.4326156496,2.30147883858
3.44562471388,6.54010091444,2.72016114264,6.63311063678
-1.1674316746,6.67615163203,2.95770663569,6.84474243499
5.28951193692,7.20220234962,1.05525212873,6.39637423319
5.04645554844,11.7182530672,2.97279762177,9.8680060314
-1.46660084005,5.00430378479,2.86034311481,5.8496378296
-0.779657228526,-14.5896454976,-7.87211139215,-6.07873037219
1.43728638299,-3.54359478003,-4.3445658991,0.622901426017
-1.70577000549,-5.99754406244,-3.85702040606,1.43453322422
-7.89882639397,-3.64149334485,-2.00947491302,-3.65383497757
-8.05188278245,13.8745573727,3.75807058002,3.24779682063
-2.87493917094,4.53060809032,-0.744383926938,3.83942861884
-5.62799555942,-7.84334119209,-4.6368384339,-7.99893958295
-7.2410519479,-1.9972904745,-3.73929294085,-6.50730778475
-6.44410833638,-4.20123975691,-1.69174744781,-3.32567598654
-4.04716472487,-2.58518903932,-1.55420195477,-2.04404418834
3.20977888665,4.71086167826,3.89334353827,-2.13241239013
3.06672249817,3.88691239585,-0.559110968687,1.55921940807
6.44366610969,7.65296311344,1.73843452435,1.97085120628
6.15060972121,4.81901383103,2.3159800174,2.66248300449
5.20755333273,10.2550645486,3.18352551044,4.43411480269
-4.38550305576,2.8511152662,1.95107100348,-1.17425339911
-6.01855944424,14.7671659838,4.42861649652,5.8873783991
0.548384167279,9.81321670138,3.15616198956,1.8990101973
5.1653277788,-6.96073258103,0.623707482604,-1.04935800449
6.53227139032,-5.86468186344,1.42125297564,-1.19772620629
7.90921500184,8.79136885415,3.38879846869,5.17390559192
2.65615861335,5.93741957174,2.42634396173,4.61553739013
-0.366897775131,-3.73652971068,0.963889454772,1.13716918833
-1.41995416361,9.29952100691,1.56143494781,-4.45119901346
1.07698944791,5.1955717245,4.73898044085,-6.23956721526
-0.606066940576,11.7316224421,3.65652593389,-1.57793541705
-4.26912332906,-5.00232684032,-1.77592857306,-4.50630361885
-6.28217971754,-4.09627612273,0.831616919979,-5.37467182064
-8.50523610602,1.73977459485,2.34916241302,-3.51304002243
-10.0882924945,2.99582531244,3.37670790606,-2.75140822423
-6.54134888299,5.73187603003,3.4142533991,-4.79977642603
-10.3044052715,5.33792674762,3.28179889215,-6.76814462782
-8.38746165995,2.62397746521,4.12934438519,-6.06651282961
-12.0705180484,-8.7899718172,-1.26311012177,-9.82488103141
-8.88357443691,-6.79392109962,-0.10556462873,-11.3632492332
-9.0666308254,3.60212961797,7.26198086431,0.198382565006
-7.81968721388,-8.34181966444,-1.68047364265,-2.27998563679
-1.56274360236,3.17423105315,2.4770718504,-3.74835383859
-6.23579999084,-4.39971822926,6.02461734344,-7.92672204038
-6.72885637932,-4.07366751167,3.27216283648,-6.37509024217
-3.98191276781,31.9623832059,12.9297083295,12.266541556
-0.924969156287,-5.4015660765,1.52725382256,-6.81182664576
0.25197445523,-11.6755153589,-3.8052006844,-6.97019484756
0.89891806675,-2.16946464132,0.352344808645,-0.128563049351
-0.274138321733,1.03658607627,1.48989030169,-0.856931251146
0.132805289784,-3.91736320614,-2.83256420527,-2.97529945294
0.659748901302,3.01868751144,0.234981287771,7.53633234527
1.30669251282,6.51473822903,1.61252678081,3.66796414347
0.0536361243394,0.490788946621,1.45007227385,1.70959594168
4.61057973586,-12.8931603358,-3.98238223311,2.94122773988
0.937523347375,-3.6571096182,0.705163259938,-0.387140461909
-2.08553304111,3.92894109939,3.29270875298,0.304491336294
-2.37858942959,7.27499181698,5.13025424602,0.606123134501
-0.0316458180696,10.7410425346,4.80779973906,-0.872245067294
-0.374702206553,-10.3029067478,-2.4846547679,-5.67061326909
0.962241404965,-3.43685603026,-1.38710927485,0.951018529118
-3.67081498352,0.399194687328,-2.79956378181,-3.08734967268
-1.953871372,-5.87475459508,-6.04201828877,-5.16571787447
1.20307223952,0.0312961225045,-1.28447279573,1.09591392373
-0.879984148964,-5.61265315991,-5.87692730269,-4.71245427806
-0.803040537445,-16.5866024423,-7.45938180965,-9.09082247986
1.70390307407,-2.11055172473,-4.3418363166,-4.49919068165
0.270846685591,-3.09450100714,-8.14429082356,-3.15755888345
-3.31220970289,-14.0784502896,-2.95674533052,-8.13592708524
2.98473390863,7.94760042804,1.66080016252,2.19570471297
2.06167752015,-22.7363488544,-6.30165434444,-7.99266348883
3.19862113166,-7.75029813679,-7.7341088514,-0.751031690623
3.95556474318,-7.8542474192,-6.43656335836,3.14060010758
0.672508354699,-3.24819670161,-3.75901786531,0.312231905787
10.9894519662,-10.902145984,-3.27147237227,-1.11613629601
13.1563955777,-5.37609526644,-2.15392687923,5.1054955022
8.01333918925,-0.250044548848,-1.17638138619,2.5071273004
3.02028280077,-5.40399383126,-2.25883589315,0.12875909861
-0.422773587712,-2.21794311367,-0.651290400105,2.45039089681
1.69417002381,17.6581076039,5.35625509294,11.422022695
3.21111363533,17.3741583215,6.20380058598,10.2136544932
5.57805724684,0.240209039095,-2.93865392098,4.69528629143
3.09500085836,-0.133740243318,-3.90110842794,6.10691808964
5.59194446988,-3.29768952573,-2.9035629349,5.06854988784
3.8488880814,-1.21163880814,-0.696017441855,3.39018168605
-4.1113372093,-5.51322674418,2.50288880813,-4.52906250001
-3.79916433002,-8.66117174624,1.89078130722,-4.65613681103
-0.91699145074,0.520883251704,1.7486738063,-1.17321112205
-4.01481857146,-20.9370617504,-1.20343369461,-11.5502854331
-1.62264569218,-15.6150067524,-2.12554119553,-10.4673597441
9.0395271871,-9.36295175448,-1.92764869644,-6.29443405512
13.3717000664,-4.71089675654,4.35024380264,-1.39150836614
12.6038729457,11.5811582414,12.1881363017,11.1714173228
0.826045824942,-11.7067867607,-3.80397119919,-3.28565698819
-4.97178129578,0.365268237283,-0.906078700105,-2.08273129922
-1.1996084165,5.12732323522,4.48181379898,4.99019438976
8.56256446278,-7.28062176684,-0.400293701938,1.07312007874
9.83473734206,-5.3785667689,0.307598797148,0.066045767715
5.09691022134,4.20348822904,5.51549129623,1.90897145669
5.04908310062,1.92554322698,6.18338379532,1.90189714567
9.6912559799,7.06759822492,6.4612762944,5.28482283464
1.79342885918,7.15965322286,8.21916879349,5.12774852362
2.88560173846,-0.198291779199,3.58706129257,-0.539325787402
-0.0422253822562,1.76376321874,5.77495379165,-0.126400098427
-8.25005250298,-5.25418178332,2.66284629074,-4.55347440945
-6.95787962369,-8.82212678538,1.78073878982,-1.55054872048
-2.69570674441,4.35992821256,3.96863128891,0.952376968504
-2.53353386513,-3.5980167895,-1.69347621201,-3.82469734252
-2.94136098585,-8.09596179156,-1.18558371292,-2.80177165354
-2.56918810657,-1.99390679362,-3.37769121384,-4.43884596457
0.492984772707,8.37814820432,-4.74979871475,-2.88592027559
-2.28484234801,-10.1897967977,-12.2219062157,-7.20299458662
2.29733053127,-4.1777417998,-4.93401371659,-4.76006889764
-4.01049658945,-5.99568680186,-3.1061212175,-1.38714320866
0.591676289827,11.4863681961,1.24177128158,7.85578248031
3.64384916911,5.24842319402,0.719663780666,5.02870816929
10.8360220484,-4.60952180804,-4.02244372025,4.77163385827
5.62819492767,23.5525331899,-0.964551221163,11.4745595472
5.96036780695,13.4745881878,2.34334127792,11.5574852362
14.1825406862,5.13664318578,1.08123377701,9.1504109252
7.82471356551,14.8586981837,2.18912627609,11.8733366142
10.2568864448,16.4007531817,-0.382981224826,11.8662623032
5.26905932407,17.2528081796,-0.275088725741,9.70918799213
-0.228767796651,7.23486317754,-0.147196226655,7.8221136811
1.60340508263,10.0269181755,-0.799303727572,3.56503937008
7.67557796191,1.86897317342,-6.37141122849,3.64796505906
-3.26224915881,8.11102817136,-3.9635187294,5.09089074803
2.05992372047,20.9830831693,4.16437376968,8.91381643701
-2.01790340025,-3.13486183276,-3.10773373123,-1.51325787401
-5.14573052097,-5.10280683482,-1.49984123215,-5.72033218504
-2.24355764169,5.39924816312,2.20805126693,-1.03740649606
-3.41138476241,5.22130316106,1.86594376602,-0.354480807084
-9.22921188313,7.323358159,0.493836265105,-2.10155511811
-7.50703900385,-0.704586843063,-2.43827123581,-6.22862942913
-4.62486612457,-15.6725318451,-5.80037873673,-12.0257037402
-2.31269324529,-6.80047684719,-0.912486237643,-4.50277805118
-2.71052036601,4.42157815075,1.29540626144,0.430147637799
4.59165251327,5.31363314869,-0.0267012394743,2.23307332677
-2.78617460745,1.84568814664,1.69119125961,0.0159990157517
5.45599827183,3.36774314457,1.8190837587,1.43892470473
9.18817115111,1.32979814251,-0.643023742221,2.0518503937
0.400344030395,-3.56814685954,-2.14513124314,-2.00522391732
2.00251690968,-10.0660918616,-0.457238744051,-1.02229822834
-2.02531021105,-19.9940368637,-4.10934624497,-6.01937253937
-4.77313733176,5.93801813427,-1.90145374588,-9.98644685039
0.829035547516,-10.1799268678,-5.2135612468,-10.4135211614
-3.5087915732,-1.32787186985,-2.62566874771,-2.67059547244
-10.7566186939,-1.95581687191,-2.09777624863,-5.87766978346
-7.45444581464,10.226238126,1.36011625045,1.26525590552
-5.98227293536,4.58829312397,0.198008749541,-2.51181840551
-4.91010005608,2.02034812191,1.73590124862,3.71110728347
-1.5179271768,7.00240311985,-3.61620625229,4.75403297245
-2.66575429752,-1.39554188221,-2.65831375321,-0.973041338577
-6.80358141824,2.33651311573,0.179578745878,-2.0601156496
-8.73140853896,-8.82143188633,-0.682528755038,-8.67718996063
-10.9892356597,-12.7593768884,-3.50463625595,-7.28426427165
-10.1670627804,0.972678109552,1.12325624313,-0.741338582669
-12.0248899011,-5.91526689251,-0.00885125778404,-4.0384128937
-3.98271702184,-7.79321189457,-2.2409587587,-3.32548720472
-7.40054414256,-9.04115689663,-3.41306625962,-2.69256151574
-6.89837126328,-5.66910189869,-1.87517376053,-1.95963582677
-4.576198384,-3.14704690075,-1.92728126145,-0.226710137791
-6.05402550472,-5.31499190281,-4.76938876236,0.556215551187
-1.54185262544,-14.5229369049,-2.54149626328,-1.60085875984
-2.79967974616,-7.71088190693,-0.0236037641935,2.07206692914
-3.84750686688,15.051173091,4.02428873489,4.70499261812
-0.6753339876,12.213228089,-0.0278187660242,6.77791830709
-1.44316110832,0.715283086891,-2.64992626694,0.780843996068
-2.50098822904,10.7773380848,3.26796623214,4.45376968505
-3.41881534976,1.47939308277,0.0858587312287,3.57669537402
-1.27664247048,14.3514480807,4.30375123031,11.999621063
-0.434469591197,3.84350307865,-2.6283562706,4.83254675198
-4.75229671192,-0.264441923411,-1.25046377152,4.84547244095
0.169876167363,0.93761307453,2.00742872757,5.24839812993
0.00204904664315,8.08966807247,1.93532122665,7.0913238189
-0.445778074078,2.95172307041,2.40321372574,4.24424950788
-5.39360519479,9.79377806835,1.16110622482,5.66717519686
-4.10143231552,-17.3041669337,-8.5610012761,-5.64989911416
3.36074056376,-8.58211193577,-7.25310877701,-2.06697342519
2.40291344304,2.81994306217,-2.92521627793,3.40595226379
5.83508632233,7.98199806011,0.382676221157,6.50887795276
2.6172592016,1.96405305805,-3.84943127976,4.15180364174
3.65943208089,-5.38389194401,-3.14153878067,-0.535270669283
1.85160496017,-9.01183694607,-2.11364628159,-7.20234498031
-1.14622216055,-3.68978194813,-5.0757537825,-7.58941929133
-4.32404928127,-5.81772695019,-3.17786128342,-5.91649360236
-8.20187640199,-4.62567195225,-0.609968784334,-4.92356791338
-8.53970352271,-15.2436169543,-5.96207628525,-8.5306422244
-6.99753064343,4.59843804363,0.915816213834,0.532283464574
-5.14535776415,4.94049304157,6.05370871292,0.775209153555
-9.19318488487,-5.49745196049,-0.788398787996,-4.04186515747
-2.38101200559,2.41460303745,-2.45050628891,-2.7289394685
-3.61883912631,2.38665803539,-0.112613789828,-5.43601377952
-2.05666624703,-7.29128696667,-3.17472129074,-5.07308809054
-5.07449336775,-12.1592319687,-3.47682879166,-7.40016240157
-5.30232048847,1.65282302921,1.86106370743,-5.21723671259
-3.05014760919,-12.7251219729,-1.05104379349,-10.7743110236
0.832025270089,3.07693302509,2.60684870559,-4.23138533463
2.50419814937,1.75898802302,2.31474120468,-6.60845964566
3.10637102865,1.11104302097,3.94263370376,0.0644660433172
8.51854390793,7.4630980189,-0.829473797154,2.35739173229
5.96071678721,3.07515301684,3.20841870193,-2.45968257873
13.5528896665,-3.69279198522,3.49631120102,2.54324311025
10.3550625458,-9.24073698727,-1.2057962999,1.57616879922
2.93723542505,3.59131801066,4.40209619918,-6.0309055118
4.91940830433,-2.5066269914,3.18998869827,-1.16797982283
0.621581183612,-2.44457199346,5.75788119735,3.85494586615
13.0037540629,1.59748300448,3.24577369644,3.23787155513
14.3859269422,5.03953800242,3.51366619552,8.5507972441
12.0980998215,14.0315930004,7.66155869461,14.2637229331
9.33027270073,-0.236352001697,5.59945119369,2.38664862206
8.81244558001,1.57570299624,3.31734369278,4.14957431104
6.90461845929,1.73775799418,3.12523619186,4.74250000001
-9.29716569767,0.727220203495,-0.315530523258,-3.6561446221
-9.00073764534,3.87582205068,0.216774829472,-0.662673102463
-8.21430959302,5.44442389787,1.6390801822,-1.64920158282
-4.73788154069,7.58302574506,-2.45861446507,-4.15573006319
-2.16145348836,6.58162759225,0.653690887657,2.20774145646
-1.44502543604,5.53022943944,0.285996240385,1.5812129761
-0.408597383714,9.93883128663,5.30830159311,0.274684495733
-1.49216933139,24.1274331338,5.25060694584,4.45815601537
-3.65574127906,-2.493965019,-3.06708770143,-4.59837246499
-2.59931322674,-6.2953631718,-1.6247823487,-0.0449009453478
-4.15288517441,-4.05676132461,-0.252476995971,-6.28142942571
-5.51645712209,30.8318405226,7.00982835676,5.74204209393
0.459970930238,19.2604423698,3.82213370949,7.76551361357
0.776398982565,5.03904421695,-8.05556093779,-2.29101486679
5.10282703489,1.39764606414,-4.91325558506,4.63245665285
6.82925508722,8.93624791133,3.23904976767,7.95592817249
3.48568313954,12.2648497585,3.2913551204,6.02939969213
6.55211119187,3.41345160571,7.33366047313,1.62287121177
2.04853924419,20.5520534529,9.35596582586,7.54634273141
-0.455032703481,14.3906553001,6.07827117859,3.96981425105
-4.10860465116,-3.56074285273,-1.27942346869,-2.78671422931
-3.34217659883,-18.9121410055,-4.70711811596,-11.0432427097
4.21425145349,4.70646084165,-0.38481276323,-0.489771190038
-1.58932049418,11.6850626888,10.3774925895,3.0137003296
-0.682892441855,-16.796335464,-6.39020205777,-10.4428281508
-7.33646438953,-26.0177336168,-8.03789670504,-15.4393566311
-7.2200363372,-10.3991317696,-4.26559135232,-7.43588511148
-3.14360828488,-13.8805299224,-4.50328599959,-10.9724135918
-1.19718023255,-5.86192807521,-2.47098064686,-11.1289420722
-3.40075218023,2.00667377198,-1.52867529413,-2.64547055256
2.3056758721,-6.06472438083,-4.5263699414,-2.04199903292
-7.24789607558,-31.8761225336,-8.87406458867,-15.0585275133
4.77853197675,-0.677520686455,-3.03175923594,4.56494400636
5.43496002908,11.6910811607,8.16054611678,10.578415526
3.6813880814,-14.7503169921,-3.51714853049,-1.67811295436
5.89781613373,-16.5417151449,-7.90484317776,-4.18464143472
4.74424418605,-2.4131132977,0.287462174969,3.05883008492
3.54067223838,-4.60451145051,0.769767527698,-3.20769839544
0.197100290703,-3.88590960332,-3.97792711957,-4.24422687581
3.53352834303,-3.03730775613,1.19437823315,-4.64075535617
-4.57004360465,-11.9587059089,-3.88331641412,-13.7672838365
-5.55361555232,-0.630104061755,0.868988938611,-6.44381231689
0.112812500005,-14.4615022146,1.41129429134,-0.610340797244
9.01924055233,17.8870996326,8.87359964407,10.3131307224
1.46566860466,2.90570147981,7.1159049968,7.96660224203
2.57209665698,-6.685696673,-0.871789650475,3.71007376167
-2.45147529069,-12.8070948258,-1.54948429775,-0.666454718688
1.19495276163,6.73150702138,1.68282105498,5.93701680095
2.19138081396,5.05010886857,2.34512640771,1.29048832059
0.157808866283,-22.3012892842,-5.02256823956,-8.79604015977
0.124236918609,-26.7526874371,-9.57026288683,-10.8725686401
0.400664970935,-5.58408558986,1.6620424659,-2.49909712049
-4.64290697674,-20.9654837427,-0.245652181375,-12.2056256009
-1.39647892441,3.69311810451,-0.143346828647,3.54784591879
-1.55005087209,-9.8982800483,-9.38104147592,-3.57868256157
-2.12362281976,-9.84967820111,-1.76873612319,-4.61521104194
-2.69719476744,-9.94107635392,1.41356922954,-0.191739522295
3.05923328489,-17.0224745067,2.27587458227,1.46173199735
4.42566133721,17.1461273405,9.488179935,8.58520351698
6.71208938954,5.23472918765,-0.439514712276,7.72867503662
9.73851744187,3.78333103484,-0.837209359548,6.48214655626
5.54494549419,-9.08806711797,-6.81490400682,-1.8243819241
5.26137354652,10.4705347292,-4.81259865409,9.52908959554
2.26780159884,-8.24086342359,-6.49029330136,3.87256111518
7.75422965117,4.85773842359,1.52201205137,10.3760326348
6.28065770349,14.6963402708,3.9743174041,10.2995041545
4.41708575582,-5.39505788203,-0.333377243176,6.1429756741
10.2135138081,9.48354396516,-1.46107189045,12.1064471937
10.3699418605,2.09214581235,3.63123346228,8.38991871338
7.38636991279,3.54074765954,5.58353881501,6.33339023302
5.47279796512,-1.04065049327,-1.13415583226,1.52686175266
0.559226017444,-3.97204864608,2.00814952046,6.5903332723
0.00565406976966,-7.92344679889,-0.00954512680437,1.58380479194
4.1920821221,-18.7148449517,-7.95723977408,-5.88272368842
6.54851017442,3.23375689549,-2.97493442135,1.66074783121
7.27493822675,8.59235874268,-1.20262906862,8.12421935085
10.2513662791,11.0809605899,6.34967628411,9.36769087049
6.6377943314,10.4995624371,-0.588018363163,6.68116239013
5.37422238372,-22.6318357158,-12.8457130104,0.244633909773
-0.479349563951,-1.77323386857,-2.42340765771,1.75810542941
1.15707848838,6.94536797862,-0.841102304978,1.02157694905
-2.8564934593,-10.9560301742,-1.69879695225,-7.32495153131
-6.16006540697,-9.867428327,-0.746491599521,-10.2814800117
-4.54363735465,8.06117352019,4.13581375321,3.40199150797
-0.107209302323,11.1197753674,1.73811910594,4.10546302761
-4.84078125,2.60837721457,-0.689575541335,-3.96106545275
-6.24435319767,-1.90302093825,2.85272981139,0.842406066888
-4.97792514535,9.96558090894,8.09503516412,7.36587758653
2.08850290698,42.1041827561,14.3673405169,14.7793491062
1.3149309593,3.26278460332,1.72964586958,4.69282062581
-4.82864098837,9.49138645051,5.65195122231,9.49629214545
-7.32221293604,8.1799882977,4.01425657504,-1.08023633492
-5.57578488372,4.03859014489,2.61656192777,2.96323518472
3.04064316861,-4.00280800792,-0.471132719507,-0.663293295635
0.207071220933,3.46579383927,6.18117263322,4.790178224
-2.73650072674,5.22439568646,2.83347798595,7.49364974364
-0.540072674416,-2.25700246635,-1.30421666132,3.21712126328
1.70635537791,5.70159938083,-1.34191130859,5.38059278292
-1.57721656977,10.620201228,3.50039404414,5.62406430256
-8.90078851744,7.81880307521,6.80269939686,0.857535822201
-3.17436046511,-18.3025950776,-5.77499525041,-12.0189926582
-2.11793241279,-16.9439932304,-7.66268989768,-9.15552113852
-5.84150436046,0.584608616782,0.709615455049,-5.45204961888
-8.96507630814,6.57321046397,3.05192080778,-4.78857809924
-1.91864825581,-3.10818768884,-0.755773839493,-4.9251065796
-6.15222020349,-9.71958584165,2.82653151323,-6.13163505996
-5.36579215116,3.59901600554,0.478836865965,-2.82816354033
3.87063590116,-3.50238214727,4.60114221869,3.02530797932
0.66706395349,9.12621969991,1.62344757142,-0.021220501043
7.73349200581,6.4648215471,-4.13424707585,3.64225101859
-5.07007994186,5.43342339429,-2.04194172312,-1.86427746177
-7.27365188953,-0.667974758517,-4.75963637039,-1.64080594213
-2.14722383721,-7.52937291133,-4.16733101766,-0.307334422487
-7.35079578488,3.73922893586,4.92497433506,1.16613709715
-8.84436773256,15.2678307831,5.53727968779,-0.270391383208
-5.38793968023,-10.0535673698,-2.54041495948,-8.29691986357
-6.10151162791,1.86503447743,-0.688109606752,-4.79344834393
-1.71508357558,15.2736363246,7.32419574598,4.91002317571
-1.20865552326,2.26223817181,1.00650109871,-2.18650530465
-1.54222747093,-12.439159981,-6.78119354857,-12.733033785
1.1242005814,10.3294418662,4.07111180416,5.50043773463
3.21062863372,-5.33195628663,-1.58658284311,-3.68609074573
7.48705668605,4.61664556056,-4.79427749038,1.55738077391
7.00348473837,-0.034752592248,-1.99197213765,-2.03914770645
5.0899127907,1.97384925494,2.00033321508,-2.80567618681
3.59634084302,2.51245110213,-4.5073614322,-3.72220466717
2.26276889535,-8.97894705068,-8.72505607947,-8.68873314753
-2.87080305232,-13.8303452035,-0.302750726738,-8.0452616279
0.72613008722,26.0047202035,15.6434447674,6.5186300872
0.909934879151,-3.07453720128,2.32993579472,-9.73497161693
-4.62626032891,-25.7337946061,-5.62357317799,-17.3985733211
-2.34245553698,-28.7330520108,-4.29708215071,-16.4521750252
-2.14865074505,-6.98230941562,2.25940887657,-4.31577672932
-4.24484595311,-17.4915668204,-1.73410009614,-17.9693784334
-3.95104116118,-24.6408242252,-10.7576090689,-19.4029801376
-2.70723636925,-22.78008163,-5.16111804157,-11.7765818417
-2.34343157731,-7.71933903474,1.01537298571,-9.07018354583
0.550373214621,1.35140356048,0.381864012998,-0.553785249962
-2.77582199344,-10.6278538443,1.59835504028,-14.1373869541
-1.69201720151,-16.4771112491,-3.42515393243,-12.7509886582
-2.22821240958,-15.4763686539,-2.65866290515,-10.1345903623
-6.82440761765,2.87437394136,0.947828122135,-6.10819206648
-2.48060282571,-17.0348834634,-5.97568085058,-10.9117937706
2.16320196622,-0.724140868195,-2.0991898233,3.44460452526
-2.12299324184,20.736601727,9.88730120399,7.63100282113
-5.44918844991,-9.32265567775,-2.03620776873,-1.87259888299
-4.61538365798,0.198086917466,-1.64971674144,-0.886200587123
-7.31157886604,-22.6011704873,-3.92322571416,-11.3698022913
-5.42777407411,-14.0604278921,0.0232653131243,-7.27340399538
-5.12396928218,20.3603147031,8.38975634041,0.572994300488
-4.89016449024,-6.95894270165,-2.46375263231,-4.05060740364
-4.01635969831,-9.36820010643,-1.98726160502,-3.71420910777
-5.37255490637,1.38254248879,3.09922942226,1.0921891881
-5.49875011444,8.17328508401,2.56572044955,0.288587483974
3.78505467749,18.2840276792,5.93221147683,7.55498577984
1.62885946943,7.10477027445,2.37870250411,11.2013840757
1.23266426136,3.34551286967,2.7951935314,6.21778237159
2.98646905329,10.2962554649,-1.71831544131,3.25418066746
-0.869726154773,5.22699806011,0.0581755859694,2.07057896333
1.66407863716,-16.0322593447,-9.38533338674,-5.8630227408
-3.61211657091,11.8684832506,8.68115764054,8.64337555507
0.731688221027,-5.48077415423,0.0876486678226,9.22977385094
-5.15450698704,-8.430031559,0.944139695108,1.80617214681
-8.5707021951,30.4607110362,10.6706307224,10.4625704427
-0.716897403172,6.66145363144,3.66712174968,0.388968738549
2.62690738876,-6.61780377334,-8.50638722304,-0.684632965578
1.0207121807,-1.58706117812,-7.40989619576,1.91176533029
1.47451697263,9.6736814171,2.57659483153,6.62816362616
2.57832176456,1.63442401232,0.0330858588131,4.81456192203
3.7921265565,-11.8048333925,-2.5504231139,0.930960217902
-0.114068651568,1.98590920276,-0.803932086617,2.22735851377
0.589736140364,3.64665179798,0.702558940668,7.37375680964
2.7035409323,0.5173943932,-3.27095003205,-1.51984489448
-0.912654275769,-3.46186301158,1.07554099524,1.72655340139
4.03115051616,27.2188795836,8.01203202252,14.3329516973
0.484955308099,-20.7903778211,-11.4914769502,-7.75065000687
1.05876010003,2.88036477408,-1.19498592291,1.865748289
4.48256489197,1.6511073693,-3.19849489563,2.42214658487
2.2963696839,9.36184996452,1.69799613166,4.41854488074
4.79017447583,7.26259255974,0.0344871589423,2.40494317661
10.1139792678,-4.11666484503,-1.92902181377,10.1013414725
7.2177840597,1.31407775018,1.47746921351,11.2877397684
4.50158885163,15.4248203454,2.67396024079,5.25413806423
5.93539364357,16.8555629406,0.420451268079,6.04053636009
6.3291984355,-3.75369446415,-3.79305770464,3.53693465597
7.70300322743,6.45704813107,-3.40656667735,9.21333295184
6.02680801937,4.95779072629,2.20992434993,6.30973124771
5.3406128113,14.9285333215,5.66641537722,7.61612954358
2.33441760324,-1.18072408327,-3.9570935955,1.31252783945
1.69822239517,-13.8999814881,-4.76060256821,-3.92107386468
0.562027187101,16.6107611072,7.72588845907,6.52532443119
-0.544168020964,-7.57849629761,-5.56762051365,-1.96827727294
-4.50036322903,-15.9977537024,-4.80112948636,-5.83187897707
-1.4465584371,9.16298889283,2.47536154092,5.47451931881
5.08724635483,7.04373148805,-1.42814743179,6.73091761468
7.98105114677,-2.07552591673,-2.36165640451,10.4673159105
9.3048559387,8.09521667849,0.0348346227765,12.0837142064
12.1786607306,12.9659592737,3.15132565006,8.22011250229
3.86246552257,5.14670186893,-1.62218332266,3.29651079816
6.5762703145,22.6674444642,0.484307704628,11.172909094
6.21007510644,20.4281870594,6.11079873191,10.7493073899
5.59387989837,0.628929654595,-4.5927102408,2.85570568577
0.747684690305,-7.53032775018,-2.01621921352,-0.267896018358
6.10148948224,13.170414845,5.01027181377,3.77850227751
3.69529427417,9.84115744026,6.16676284105,7.56490057339
7.29909906611,8.67190003548,2.59325386834,8.14129886926
5.98290385804,0.202642630698,-0.820255104381,4.83769716513
3.93670864997,16.2733852259,3.0162359229,11.834095461
1.26051344191,17.4641278211,2.66272695019,10.7204937569
1.85431823384,2.61487041636,-1.91078202253,8.08689205274
7.17812302577,22.5556130116,4.57570900476,11.6232903486
2.56192781771,5.3263556068,-1.15779996796,1.98968864448
3.70573260964,5.41709820202,-3.99130894067,7.10608694035
5.88953740157,2.59784079724,-0.75481791339,14.5324852362
0.463342193507,30.0485833925,3.16167311389,11.7588835321
-1.54285301456,18.6193259877,5.91816414118,9.50528182797
-0.799048222625,11.1400685829,-0.0153448315377,2.67168012384
-1.95524343069,-3.74918882188,-2.39885380425,-1.91192158029
-0.291438638758,10.3315537733,1.38763722303,1.62447671558
-6.84763384682,24.4822963686,7.60412825032,10.3208750114
-1.52382905489,2.66303896378,-4.1693807224,3.10727330732
3.68997573704,-2.16621844099,-4.78288969511,-2.68632839681
4.37378052898,19.7845241542,1.99360133217,11.4900698991
-3.06241467909,6.06526674945,6.68009235945,-0.623531805068
-6.51860988716,-2.85399065533,-1.96341661326,-5.6671335092
-3.98480509522,-15.4432480601,-3.87692558598,-7.08073521333
-1.12100030329,-12.8225054649,0.0595654413082,2.02566308255
-0.507195511356,-15.1217628697,-8.53394353141,-9.90793862159
-4.34339071942,1.81897972555,-0.367452504122,-10.0415403257
-7.21958592749,3.98972232077,-1.32096147684,-8.16514202984
-10.2957811356,-7.69953508401,-0.934470449554,-14.058743734
-8.59197634362,-2.91879248879,1.78202057773,-6.6623454381
-8.75817155169,-2.02804989357,-1.05148839499,-6.96594714223
-1.93436675975,6.53269270165,1.3550026323,3.80045115364
-1.39056196782,6.93343529687,-6.39850634042,1.68684944951
-4.84675717589,-13.7358221079,1.60798468687,-9.91675225462
-0.862952383952,-1.80507951269,5.24447571415,4.76964604125
2.65085240798,8.16566308253,5.92096674144,4.79604433712
4.02465719991,-2.69359432225,2.75745776872,-10.717557367
-0.481538008153,-9.33285172702,-7.366051204,-9.93115907114
-4.18773321622,-17.1821091318,0.870439823289,-10.5047607753
1.65607157572,6.44863346342,4.00693085057,3.9316375206
-2.63012363235,-9.53062394136,1.80342187786,-0.131964183525
-4.22631884042,-9.57988134614,-0.850087094857,-1.17556588765
-5.13251404848,-12.1291387509,1.50640393243,-5.04916759178
-1.16870925655,-8.2183961557,-3.89710504029,-8.21276929591
-4.02490446462,-0.32765356048,0.0893859869957,-15.816371
3.11890032732,-9.86691096526,-11.2041229857,-4.87997270417
-3.40729488075,-15.03616837,1.49236804156,-6.5735744083
-6.72349008882,-1.01542577482,4.07885906885,-2.23717611243
-7.67968529688,-2.9446831796,8.48535009613,1.06922218344
4.37411949505,-26.9639405844,-3.90815887658,-9.02437952069
4.46792428698,-10.6331979892,-5.4916678493,-8.37798122481
-0.928270921082,-26.5024553939,-3.98517682201,-16.3315829289
-2.50446612915,-19.9517127987,1.07131420527,-11.6851846331
-7.77066133722,-11.6109702035,1.88780523255,-10.4287863372
-13.1994715447,8.23171125099,1.24387227904,-10.2592656701
-12.4805251233,6.80980394939,-4.5277878956,-6.36198729111
-3.46157870184,16.0978966478,-4.19944807024,6.46529108785
