4.7715261628,4.33171875001,-1.53276162792,1.72261264535
5.37123268977,1.30134596458,-0.0690431869261,-1.02937485694
-0.819060783266,-5.48902682085,0.694675254061,-3.74136235923
2.77064574369,-7.13939960628,-0.141606304947,0.886650138485
4.34035227066,-0.0697723917183,-0.717887863957,4.02466263619
3.93005879762,4.15985482285,1.25583057704,0.512675133908
9.60976532459,-3.64051796259,1.17954901803,-4.73931236838
1.41947185155,-2.87089074802,-1.18673254098,-3.54129987067
4.35917837852,5.59873646655,0.0169859000052,4.74671262704
6.06888490548,4.26836368112,4.910704341,15.4247251248
-2.91140856755,-1.85200910432,3.04442278199,5.47273762246
-3.28170204059,-9.54238188975,-2.75185877702,-3.24924987983
-1.80199551363,-12.9927546752,-3.83814033603,-4.91123738212
-2.06228898666,-2.04312746062,-3.36442189504,-0.313224884405
4.5874175403,-3.39350024605,-4.63070345405,-2.2652123867
8.30712406726,-2.05387303149,-3.05698501306,-1.59719988898
8.62683059423,-8.61424581692,-3.80326657207,-2.85918739127
3.00653712119,-15.2046186024,-2.91954813107,-1.72117489356
8.20624364815,-3.62499138778,-3.25582969008,2.85683760415
0.565950175114,2.48463582678,-1.47211124909,1.19485010186
-1.68434329791,-0.885736958655,-3.1883928081,0.882862599572
1.36536322904,-1.93610974409,-4.87467436711,-0.289124902718
-1.23493024399,-9.72648252952,-3.53095592612,2.24888759499
-0.0852237170329,-6.86685531495,-2.77723748513,-0.0330999072958
-0.775517190064,4.02277189961,-0.643519044141,-1.98508740958
1.9641893369,1.50239911418,-2.08980060315,-0.847074911873
0.833895863863,-2.50797367125,-2.66608216216,-2.34906241416
2.38360239083,-10.3583464567,-4.29236372117,-3.83104991645
-0.156691082208,-7.32871924212,-4.65864528018,-3.19303741874
0.123015444755,1.48090797244,-3.82492683918,-1.67502492103
-1.16727802828,5.31053518702,-2.0912083982,2.16298757668
-1.39757150131,-1.47983759842,-0.877489957202,-6.80899992561
-2.03786497435,-6.04021038386,-2.61377151621,-4.3709874279
0.491841552612,0.849416830715,-0.280053075225,2.81702506982
3.21154807957,5.99904404528,2.83366536577,3.61503756753
5.45125460654,7.49867125985,0.117383806759,1.58305006524
6.4009611335,-1.37170152559,-1.98889775225,3.94106256295
0.440667660463,-4.73207431102,-1.11517931126,2.23907506066
-2.02962581257,0.0275529035498,-0.411460870273,2.22708755837
1.1500807144,9.84718011811,-1.49774242928,8.93510005608
-2.08021275864,3.03680733268,1.52597601171,2.44311255379
-5.18050623169,-7.17356545276,-1.8403055473,-2.9688749485
-5.53079970471,-11.2439382382,-2.67658710631,-5.86086245079
-2.45109317775,-5.69431102362,-1.41286866531,-8.41284995307
1.01861334921,8.28531619095,0.360849775672,4.03516254464
0.888319876176,12.5149434055,0.724568216665,10.9731750423
-5.22197359686,10.4645706201,1.62828665765,5.96118754006
-3.3722670699,4.00419783465,3.49200509865,2.93920003777
0.00743945706199,3.99382504921,2.18572353964,3.29721253548
2.78714598402,10.1134522638,-0.290558019369,9.61522503319
6.326852511,12.2430794783,2.20316042162,8.8532375309
0.966559037959,7.04270669291,2.61687886261,2.90125002861
-0.72373443508,1.57233390748,0.070597303602,0.479262526325
-0.37402790811,4.46196112204,0.284315744593,5.56727502404
-0.814321381149,8.42158833661,1.54803418558,4.62528752175
2.25538514581,10.9312155512,2.04175262657,0.773300019457
-3.90490832723,0.49084276575,0.575471067561,-2.71868748283
-7.42520180026,2.15046998032,0.339189508555,-5.94067498512
-12.7954952733,3.39009719488,2.54290794954,-1.12266248741
-9.30578874633,8.59972440945,5.87662639054,5.8053500103
-4.95608221937,11.359351624,5.24034483153,2.73336250801
-8.9063756924,1.65897883858,3.52406327252,-2.42862499428
-8.75666916544,-6.15139394686,2.52778171351,-4.18061249657
-6.04696263848,-0.541766732291,2.7015001545,-5.73259999885
-3.35725611151,8.84786048228,2.37521859549,-5.35458750114
-6.63754958455,4.33748769684,2.91893703648,-2.23657500343
-2.95784305759,-3.01288508859,0.312655477472,-2.32856250572
-1.98813653062,-6.73325787402,-0.953626081537,-5.95055000801
-9.19843000366,-1.99363065945,2.30009235945,-3.0325375103
-7.1387234767,1.83599655511,1.99381080044,-2.14452501259
-7.99901694973,0.925623769683,-0.0524707585646,-4.96651251488
-9.46931042277,3.81525098424,0.00124768242677,-5.97850001717
-12.4696038958,-9.46512180119,-0.035033876582,-10.6704875195
-13.2198973688,-6.61549458662,0.0586845644066,-13.8524750217
-6.73019084187,5.07413262795,0.762403005396,-9.65446252403
-4.02048431491,7.27375984251,2.09612144639,-7.56645002632
-5.64077778794,0.23338705708,2.94983988738,-6.22843752861
-8.29107126098,0.863014271643,4.12355832837,0.829574969101
-7.28136473402,0.832641486217,4.77727676936,0.177587466811
-3.87165820706,8.38226870078,3.20099521035,-4.96440003548
-4.64195168009,6.36189591535,3.99471365134,-4.41638753777
1.28775484687,-1.83847687009,5.51843209233,-7.77837504006
-2.32253862617,-2.65884965552,7.67215053332,-5.66036254234
-7.5928320992,2.48077755905,8.24586897431,2.06764995536
-5.36312557224,12.1704047736,9.69958741531,2.22566245308
-0.933419045272,8.58003198817,8.9333058563,3.53367495079
-4.76371251831,-0.430340797255,6.18702429728,2.7216874485
0.715994008657,-2.23071358268,4.92074273828,0.419699946209
7.56570053562,-0.621086368126,4.24446117927,5.41771244392
12.7354070626,3.04854084644,3.08817962026,4.87572494163
11.9251135895,-0.27183193899,1.55189806125,2.54373743934
6.36482011651,-4.11220472442,3.55561650224,5.98174993705
3.71452664347,-2.99257750986,4.13933494323,5.54976243476
4.75423317043,-1.06295029529,1.67305338422,4.65777493248
6.3939396974,3.96667691928,1.29677182521,1.09578743019
3.98364622436,1.80630413385,3.0804902662,-0.676200072103
5.24335275133,-2.86406865159,1.47420870719,-4.54818757439
1.63305927829,-11.884441437,-1.42207285181,-4.44017507668
2.34276580526,-0.214814222454,-1.07835441083,4.35783742103
2.14247233222,2.58481299211,-0.974635969833,2.63584991874
6.22217885919,0.33444020668,-2.58091752885,-3.18613758355
-0.0881146138563,-3.79593257876,-0.647199087853,-0.0381250858354
-2.69840808689,-4.01630536419,0.636519353138,1.00988741187
3.79129844008,0.903321850376,-0.96976220587,1.86789990959
7.65100496704,10.7929490649,-0.356043764881,6.2959124073
1.080711494,11.5825762795,0.487674676111,1.72392490501
-0.109581979035,-3.23779650593,-0.9186068829,-1.31806259728
-0.869875452074,-8.23816929136,-3.25488844191,-0.81005009957
1.70983107489,-4.09854207679,-0.141170000916,0.237962398141
7.46953760186,3.06108513778,1.81254844008,4.47597489585
2.62924412882,4.38071235234,-0.0537331189371,2.61398739356
2.51895065579,0.900339566913,-1.12001467794,-0.828000108726
2.64865718275,3.42996678148,-1.10629623695,-0.299987611015
6.31836370972,6.11959399605,-0.652577795961,1.9280248867
10.7080702367,0.619221210611,-1.79885935497,3.97603738441
11.1877767636,-3.04115157483,-5.01514091398,1.94404988212
7.24748329061,-5.26152436026,-6.70142247299,2.25206237983
1.48718981757,-8.97189714569,-6.047704032,-1.19992512246
-3.42310365547,-8.34226993113,-5.79398559101,-8.67191262475
-0.26339712851,-0.26264271656,-6.77026715002,-1.43390012704
-0.233690601541,0.816984498008,-4.05654870903,-0.795887629327
-2.59398407458,-0.79338828742,-1.18283026804,-3.11787513161
-0.994277547616,-8.25376107285,-3.51911182705,0.560137366096
-0.244571020652,-5.69413385829,-3.84539338606,1.2681498638
2.46513550632,-0.894506643723,-4.91167494507,6.44616236152
1.08484203328,-1.68487942916,-4.49795650407,5.75417485923
-0.805451439759,-9.19525221459,-5.22423806308,0.0421873569394
-3.5257449128,-12.425625,-8.08051962209,-1.11980014535
3.52449854652,-4.8720712209,-1.22577761628,-2.96725654069
4.00409182728,6.89065824714,2.32539727728,3.9797794875
2.53368510804,2.63338771518,1.50657217085,1.71681551571
2.66327838881,-3.26388281677,0.427747064408,2.53385154391
-1.73712833043,-3.54115334873,0.598921957971,5.23088757211
0.752464950332,6.76157611932,2.03009685154,4.1979236003
6.9520582311,4.31430558737,1.0112717451,4.4349596285
1.95165151186,4.54703505541,2.21244663866,4.81199565671
-1.09875520738,0.0797645234634,0.623621532228,1.9590316849
-1.96916192662,-2.31750600849,0.41479642579,2.1560677131
-1.39956864585,5.86522345955,3.80597131935,5.52310374131
5.14002463491,11.8379529276,4.48714621292,6.81013976951
3.28961791568,12.4506823956,3.27832110648,7.0271757977
-1.86078880355,-0.256588136312,1.70949600004,3.55421182591
-0.601195522795,-8.72385866827,2.50067089361,0.671247854105
0.728397757972,2.97887079978,3.32184578717,8.5982838823
3.85799103873,12.1216002678,3.83302068073,9.7053199105
4.7375843195,14.3243297359,4.0241955743,8.53235593871
-0.752822399743,5.47705920392,4.24537046786,3.83939196691
1.80677088103,1.54978867197,3.25654536143,3.1564279951
4.00636416179,3.35251814,4.16772025499,4.7334640233
-2.42404255745,10.3052476081,6.21889514855,4.7305000515
-7.57444927668,9.9079770761,4.64007004211,2.8475360797
-6.69485599592,3.52070654415,2.62124493568,4.6045721079
-1.99526271516,-2.58656398781,0.0524198292405,0.301608136104
-4.64566943439,5.73616548024,-0.206405277193,-1.7113558357
-8.21607615363,3.38889494829,0.30476961637,1.3456801925
-11.8764828729,0.851624416333,-0.394055490069,-0.607283779296
-12.7768895921,-6.71564611563,-2.2128805965,-5.1802477511
-8.83729631134,-14.8729166476,-3.11170570294,-12.3632117229
-4.98770303058,-6.28018717953,2.48946919062,-5.8661756947
0.231890250187,6.87254228851,1.30064408419,1.4208603335
2.36148353095,7.27527175656,-1.85818102225,1.3178963617
-1.78892318828,0.178001224609,1.22299387131,2.8149323899
-2.44932990753,1.04073069265,2.42416876488,5.2019684181
-0.0697366267559,6.3834601607,3.01534365844,5.6190044463
6.039856654,8.04618962874,1.376518552,2.8560404745
2.82944993477,8.34891909679,-0.482306554433,-0.656923497298
0.48904321553,4.13164856483,-2.10113166087,-3.9098874691
1.05863649629,-5.18562196712,-4.04995676731,-0.00285144089685
5.49822977705,-0.412892499073,-1.75878187374,3.2741845873
-2.18217694218,3.52983696897,-1.15760698018,2.2212206155
0.907416338589,-0.757433562983,-4.40643208661,-4.1617433563
0.627009619348,-9.11470409494,-6.26525719305,-10.5147073281
-7.19339709989,-12.4319746269,-5.64408229949,-16.2876712999
-4.94380381912,-5.93924515885,-4.02290740592,-9.2306352717
-6.19421053836,-1.7965156908,-5.64173251236,-3.2035992435
-7.7946172576,-3.31378622275,-3.9405576188,-4.3965632153
-5.96502397683,-6.23105675471,-4.35938272524,-3.7295271871
-9.27543069607,-5.90832728666,-2.05820783167,-6.1324911589
-8.25583741531,0.994402181386,1.35296706189,0.434544869302
-3.24624413455,2.65713164943,-0.305858044547,1.2815808975
2.69334914622,7.96986111748,-3.80468315098,-0.761383074298
3.72294242699,0.532590585521,-1.48350825742,2.7156529539
-1.11746429225,-6.30467994644,1.23766663615,-0.0373110178989
-0.857871011489,-6.38195047839,-0.731158470291,-2.7102749897
-3.75827773073,-2.57922101034,-0.669983576725,-4.1232389615
-2.51868444996,-2.2764915423,-1.54880868316,-6.8562029333
-2.8490911692,-4.30376207425,-1.4876337896,-3.2191669051
7.24050211157,-10.2910326062,-1.56645889604,-1.0821308769
11.5400953923,-6.47830313815,-0.675284002471,-1.4050948487
12.9096886731,-0.345573670114,-1.64410910891,2.3419411795
15.9892819539,-2.17284420207,-4.06293421534,2.8489772077
8.23887523462,-5.63011473402,-2.66175932178,3.4060132359
2.29846851539,-8.12738526597,-1.86058442822,-0.0869507359002
4.04806179614,-7.36465579793,-3.27940953466,-9.7099147077
2.76765507691,-1.61192632988,-3.84823464109,-11.0828786795
4.15724835767,-5.93919686184,-5.05705974753,-10.9758426513
4.83684163844,-13.9964673938,-5.10588485397,-12.6388066231
3.0764349192,-18.4637379257,-5.4047099604,-12.3717705949
-4.17397180003,-14.3010084577,-3.82353506684,-10.0547345667
-2.58437851928,-5.47827898966,-2.31236017328,-4.3376985385
2.4552147615,-3.39554952161,-0.911185279714,-3.7406625103
1.54480804226,-2.09282005356,-0.720010386147,-1.0436264821
-0.795598676981,-10.0600905855,-1.23883549258,-2.3765904539
2.16399460378,-7.50736111747,-2.71766059902,-6.5195544257
4.07358788454,-2.33463164942,-3.37648570546,-1.8725183975
11.2631811653,-5.42190218137,-3.89531081189,-2.6854823693
5.99277444607,-9.15917271333,-3.52413591833,-7.7684463411
4.35236772684,-10.8364432453,-3.57296102477,-6.8614103129
0.311961007596,-6.57371377724,-2.0817861312,-1.3443742847
-6.11844571163,-3.7809843092,0.129388762361,-1.3973382565
0.0111475691228,-2.95825484115,0.360563655922,-4.0603022283
-2.67925915011,-7.8055253731,-1.55826145051,-7.7332662001
-2.86966586934,-12.6927959051,-1.90708655695,-9.1062301719
0.309927411421,-6.120066437,-0.395911663385,-5.3591941437
0.409520692185,2.85266303103,-0.934736769821,-0.0221581155001
1.95911397295,-0.0446075009168,-0.583561876258,3.0748779127
-1.99129274629,-1.35187803287,3.4576130173,3.9419139409
2.30830053447,-2.07914856483,3.28878791087,3.2389499691
5.82789381524,2.25358090322,2.69996280443,3.8859859973
2.25748709599,5.41631037126,2.92113769799,1.6230220255
-1.26291962324,5.19903983932,3.87231259156,3.2700580537
-5.97332634248,-2.83823069264,1.03348748513,-4.0029059181
-2.70373306171,-6.7855012246,-2.81533762131,-7.0958698899
-1.86413978094,-3.18277175655,-1.79416272775,-1.9888338617
2.38545349982,2.5499577115,0.637012165811,-1.4817978335
6.46504678058,5.84268717954,-0.601812940622,2.5152381947
6.13464006135,-1.99458335241,-2.02063804706,1.6122742229
-0.175766657892,-7.89185388436,-2.7194631535,-2.0106897489
5.39382662287,-0.749124416317,-3.01828825993,-2.4436537207
4.24341990364,4.91360505173,-1.38711336637,-1.7366176925
-4.9769868156,7.84633451977,0.744061527192,3.6904183357
-4.21739353483,2.70906398782,2.21523642076,1.6874543639
1.63219974593,0.73179345586,0.316411314321,-1.6655096079
-1.12820697331,9.65452292391,2.49758620788,1.0915264203
-0.47861369254,14.337252392,5.16876110145,3.5685624485
1.97097958822,11.49998186,1.94993599501,3.2755984767
-3.38942713102,4.96271132804,1.42111088858,-0.467365495102
-1.00983385026,2.82544079609,0.372285782138,1.3096705331
2.56975943051,9.62817026414,0.453460675704,6.0167065613
5.14935271127,17.8608997322,2.09463556926,8.9237425895
7.03894599203,15.9936292002,0.955810462827,7.6807786177
-0.881460727207,4.43635866827,-0.823014643611,3.5178146459
-1.53186744644,4.66908813632,2.34816024996,7.5848506741
-1.27227416567,9.35181760437,3.05933514352,6.2118867023
-3.30268088491,12.9545470724,4.33051003708,4.1689227305
-0.453087604146,9.11727654046,2.22168493065,1.0559587587
-1.02349432338,-2.28999399149,-0.15714017579,-0.917005213103
-7.63390104262,-6.59726452345,0.324034717771,-1.7299691849
-4.18430776186,-3.12453505541,3.33520961134,6.4170668433
-0.0347144810876,3.89819441264,5.3163845049,12.0441028715
-0.385121200328,3.86092388069,6.31755939846,9.9111388997
-4.22552791957,-2.18634665127,4.34873429203,2.8481749279
-7.18593463881,-7.17361718322,1.27990918559,-2.8147890439
-6.57634135804,1.75911228482,0.491084079153,1.0022469843
-1.75674807727,2.25184175288,1.33225897272,6.8892830125
1.01284520349,-0.635428779089,-0.346566133718,5.8063190407
-5.66033793602,5.84401526162,5.40479287791,5.62078488372
-2.42061312601,0.886710395302,2.89972847235,4.1378246887
-1.03088831599,5.96940552897,4.08466406679,4.78486449369
-1.54116350597,11.4621006627,4.70959966123,10.3819042987
5.58856130404,7.88479579632,3.34453525568,7.44894410365
3.05828611406,-0.482509069996,3.13947085012,3.90598390863
-3.31198907592,-1.42981393632,3.67440644456,0.0330237136077
-4.4722642659,1.37288119735,3.629342039,-0.82993648141
-3.82253945589,4.86557633102,0.834277633447,-0.812896676431
0.627185354126,1.8582714647,2.47921322789,-3.93585687145
0.17691016414,-5.74903340163,1.65414882233,-8.83881706647
-2.97336502584,-10.416338268,-3.60091558323,-11.8617772615
-2.12364021583,-6.62364313427,-2.48597998878,-9.27473745651
-2.1439154058,0.1990519994,-1.35104439434,-7.56769765153
0.785809404209,0.371747133075,-3.5361087999,-6.86065784655
1.00553421422,-8.58555773325,-4.77117320546,-10.2436180416
-2.54474097576,-11.5728625996,-3.18623761101,-10.1365782366
-4.06501616575,-7.2501674659,-2.20130201657,-2.2995384316
-7.35529135573,-0.487472332228,-0.846366422127,-2.02249862662
-5.24556654572,0.275222801451,-1.27143082769,-3.86545882164
-5.8558417357,-5.29208206488,-3.21649523324,-8.47841901666
-6.25611692568,-4.4193869312,-0.871559638803,-7.28137921168
-4.62639211566,4.60330820247,2.43337595564,-2.0843394067
-2.18666730564,5.92600333614,1.42831155008,1.26270039828
-1.82694249563,3.23869846982,0.263247144525,0.179740203261
-5.93721768561,-3.0986063965,1.33818273897,-2.28321999176
-8.2474928756,-10.1059112628,-0.146881666587,-4.86618018678
-6.04776806558,-2.59321612915,-0.771946072149,-0.049140381796
-4.06804325557,3.06947900452,-1.6070104777,1.10789942318
-3.97831844555,1.5221741382,-2.76207488326,-1.47506077183
-3.41859363554,-1.31513072812,0.112860711182,-0.568020966855
-4.14886882551,-3.17243559445,2.12779630562,1.34901883813
1.0108559845,2.69025953922,1.52273190007,5.45605864311
1.59058079452,8.0629546729,0.0376674945073,8.95309844809
6.78030560453,2.79564980657,-1.32739691105,2.15013825307
4.39003041455,-1.53165505975,-1.35246131661,2.60717805805
1.18975522456,-3.75895992608,-2.73752572216,2.53421786303
4.42948003458,-0.5462647924,-2.69259012772,1.72125766801
6.10920484459,2.65643034127,-1.17765453328,2.60829747299
6.53892965461,5.23912547495,-3.21271893884,3.62533727797
6.57865446463,-0.248179391376,-1.2677833444,4.29237708295
0.588379274646,-7.4654842577,-3.15284774996,-0.480583112067
5.01810408467,-1.26278912403,-2.67791215551,1.58645669291
6.13782889468,2.02990600964,-1.94297656107,3.45349649789
2.8475537047,3.50260114333,-1.69804096662,2.98053630288
6.60727851471,-0.654703723005,-0.543105372184,7.45757610786
9.35700332472,-1.98200858933,-0.0281697777391,10.3846159128
4.85672813474,6.07068654435,1.1067658167,7.93165571782
6.51645294476,8.32338167802,0.591701411144,6.6486955228
6.20617775477,7.9560768117,-0.213362994415,5.01573532778
2.3359025648,0.428771945371,-0.958427399972,-1.96722486724
3.96562737481,-3.35853292095,0.0265081944708,-0.390185062259
4.52535218483,0.134162212722,1.45144378892,3.82685474272
1.15507699484,2.77685734641,0.576379383354,1.8438945477
0.954801804859,3.63955248008,1.1413149778,4.57093435268
-3.07547338513,3.56224761374,1.24625057224,4.08797415766
-0.405748575111,-1.21505725258,1.00118616668,4.83501396265
-0.5860237651,3.7776378811,2.84612176113,7.53205376762
3.01370104492,7.66033301478,2.54105735557,5.8890935726
4.01342585494,6.59302814845,0.0959929500095,4.74613337758
8.75315066495,-0.774276717872,-0.109071455547,4.53317318257
0.792875474974,-0.361581584199,3.58586413889,4.33021298755
0.912600284988,4.08111354947,4.27079973334,4.13725279253
3.84232509501,6.97380868315,3.46573532778,6.72429259751
1.00204990502,3.28650381682,-0.739329077776,6.09133240249
2.45177471503,-8.6408010495,-4.65439348334,0.41837220747
3.21149952505,-11.5981059158,-3.42945788889,-5.26458798755
-2.99877566494,-7.65541078215,-1.68452229445,-5.47754818257
2.95094914509,0.487284351526,-2.95958670001,-4.32050837759
4.0406739551,3.2699794852,-2.71465110557,-2.45346857261
-0.989601234884,-3.39732538113,-3.33971551112,0.0235712323738
0.730123575137,-3.27463024746,0.25522008332,1.58061103735
1.24984838515,-2.62193511378,1.66015567776,-2.72234915766
4.30957319517,2.4007600199,-0.894908727798,-2.95530935268
4.77929800518,3.36345515357,0.130026866649,-1.8682695477
-3.2009771848,-4.58384971276,0.104962461093,-1.99122974272
-1.63125237479,-8.70115457907,-2.73010194447,-4.05418993774
4.06847243523,-0.918459445405,-0.315166350025,0.542849867239
6.07819724525,4.52423568827,-0.0802307555823,0.0198896722213
5.42792205526,-1.92306917805,-3.40529516114,-5.2930705228
2.05764686528,-6.39037404438,-1.9103595667,-9.25603071782
1.2073716753,-6.5976789107,0.254576027746,-8.11899091284
-0.312903514685,-3.41498377703,1.25951162219,-7.66195110786
0.536821295325,0.367711356652,-0.0855527833701,-5.95491130288
3.08654610534,-0.269593509678,0.269382811071,-7.1178714979
-5.23372908464,-6.206898376,-1.02568159448,-11.5108316929
-5.41400427462,-5.12420324233,-1.10074600004,-8.50379188794
5.1857205354,-4.28150810865,-2.1758104056,-6.45675208295
5.03544534541,1.09118702503,-3.52087481116,-0.139712277974
3.95517015543,4.8738821587,-1.73593921671,5.55732752701
3.62489496544,-3.63342270762,-1.82100362227,-4.42563266801
6.68461977546,-11.090727574,-5.19606802783,-6.37859286303
4.69434458548,-4.79803244027,-5.87113243339,-6.14155305805
-3.30593060451,-2.6353373066,-3.03619683894,-7.60451325307
-3.30620579449,0.0573578270705,-0.221261244504,-3.29747344809
-4.24648098448,-4.85994703925,-2.32632565006,-3.78043364311
0.653243825545,-6.74725190558,-2.42139005562,-4.01339383813
-2.22703136444,-0.7245567719,-0.786454461173,0.293645966854
-1.24730655443,8.93813836177,1.39848113327,9.56068577183
-3.61758174441,7.61083349545,3.18341672771,8.07772557682
-6.1178569344,1.78352862912,3.91835232215,2.6347653818
-4.77813212438,-2.78377623721,2.0632879166,1.00180518678
-8.03840731437,3.09891889647,4.83822351104,0.208844991757
-10.6386825044,11.3616140301,5.43315910548,7.73588479674
-8.63895769433,8.03430916382,2.88809469992,5.91292460172
-8.75923288431,0.0670042974962,3.13303029436,1.8599644067
-6.0695080743,2.08969943118,3.23796588881,1.68700421168
-3.56978326428,4.15239456484,5.38290148325,6.84404401666
-2.12005845426,11.0550896985,6.29783707769,8.13108382164
-0.300333644249,12.7377848322,5.89277267213,7.49812362662
-1.67060883423,2.29047996587,5.17770826658,3.0151634316
0.43911597578,-0.766824900449,4.86264386102,6.52220323658
0.2288407858,4.25587023322,4.29757945546,7.28924304156
2.08856559581,3.3885653669,0.412515049906,3.75628284655
-1.98170959416,2.17126050057,0.987450644345,0.883322651525
-3.41198478415,-3.40604436575,0.692386238788,-2.38963754349
-5.86225997414,-7.82334923208,0.687321833229,-0.942597738513
-4.37253516412,-3.92065409841,0.582257427675,-1.86555793353
2.3371896459,-1.65795896473,0.647193022116,-3.01851812855
3.02691445591,2.37473616895,-0.767871383439,2.02852167643
-1.22336073407,1.57743130263,2.627064211,2.72556148141
-0.703635924052,-2.3498735637,0.141999805444,-0.897398713609
-5.06391111404,0.192821569974,-0.663064600114,-0.860358908629
-1.50418630402,2.56551670365,-1.57812900567,-0.713319103648
1.265538506,-0.791788162671,-4.31319341123,-4.99627929867
2.74526331601,-3.73909302901,-4.62825781678,-5.49923949369
3.21498812603,-6.87639789533,-6.12332222235,-4.9421996887
7.30471293604,-1.81370276165,-5.8083866279,-7.21515988373
9.26469476745,6.13000726743,1.01516351744,0.818888081398
3.29788239907,-1.09756912653,-1.50696012063,-2.58146350256
-6.74892996932,-8.90514552051,-2.6390837587,-8.52181508652
-3.3057423377,-8.24272191449,-0.241207396772,-2.66216667048
-3.46255470609,-5.44029830847,2.82666896516,-5.56251825444
-9.03936707447,-0.527874702435,0.674545327089,-2.6728698384
0.213820557139,2.14454890358,1.97242168902,-1.82322142236
-7.71299181124,-3.92302749039,1.31029805095,-3.69357300631
-7.86980417963,-2.28060388437,3.88817441288,3.12607540973
-6.96661654802,1.35181972166,4.96605077481,2.50572382577
2.6365710836,5.05424332769,1.48392713674,2.98537224181
0.569758715217,5.47666693371,1.62180349867,2.67502065785
0.882946346828,2.95909053973,2.6796798606,0.46466907389
-5.86386602155,-4.24848585424,0.857556222531,-4.89568251007
-5.74067838994,-1.44606224822,0.305432584461,-1.80603409403
-4.71749075832,6.32636135781,2.99330894639,2.71361432201
-3.54430312671,8.52878496383,2.35118530832,4.90326273805
-5.69111549509,2.71120856985,2.04906167025,0.712911154096
0.732072136518,0.28363217588,3.54693803218,3.04255957014
-0.00474023185961,5.2860557819,1.54481439411,5.57220798618
1.51844739975,12.2084793879,2.33269075604,9.28185640222
3.33163503136,6.74090299395,4.73056711797,4.93150481826
0.944822662983,0.113326599982,3.6484434799,3.2611532343
2.3380102946,-0.874249793997,1.36631984183,3.64080165034
3.37119792621,1.34817381203,0.19419620376,0.900450066381
8.35438555782,4.80059741805,-1.38792743431,0.210098482425
6.49757318944,1.24302102408,-4.98005107238,-3.18025310154
1.03076082105,-8.6045553699,-3.74217471045,-6.35060468549
1.86394845267,-9.42213176387,-3.73429834852,-5.12095626945
6.62713608429,-1.84970815785,-1.33642198659,2.85869214659
0.8403237159,2.88271544818,-1.50854562466,2.59834056263
-8.11648865249,-1.0648609458,-6.69066926273,-7.45201102133
-8.20330102087,-4.53243733977,-6.9527929008,-9.55236260529
-5.18011338926,-11.2700137338,-5.26491653887,-5.68271418925
-3.29692575764,-3.21759012772,-4.05704017694,1.11693422679
-0.433738126027,1.2948334783,-2.72916381501,3.08658264283
-2.69055049442,3.22725708432,-0.64128745308,6.31623105887
-6.7273628628,0.689680690346,1.12658890885,4.28587947491
-4.47417523118,2.49210429637,1.35446527078,6.07552789096
-3.24098759957,4.9645279024,-2.32765836729,2.255176307
1.70220003205,8.28695150842,-0.659782005358,4.58482472304
0.835387663661,8.82937511444,0.548094356571,4.25447313908
-0.591424704726,-2.55820127953,-2.8440292815,-2.06587844488
0.2217629269,-8.93577767351,-3.97615291957,-5.72623002884
-2.25504944149,-4.22335406749,-2.48827655764,-5.0065816128
-0.00186180987657,0.839069538546,-1.52040019571,-4.82693319676
0.631325821741,-0.0885068554344,-2.83252383378,-4.72728478072
-3.16548654665,-5.88608324941,-4.32464747185,-6.98763636468
-4.43229891503,-1.60365964338,-0.336771109916,-2.48798794863
-1.49911128341,10.0087639626,3.51110525201,9.4716604674
7.0440763482,12.2611875687,5.32898161394,13.2613088834
12.1172639798,14.1536111747,4.52685797587,12.6609572995
12.4304516114,4.88603478071,2.41473433781,13.1306057155
16.173639243,4.60845838673,5.79261069973,10.5402541316
19.4568268747,4.49088199276,3.97048706166,7.14990254761
20.5200145063,4.74330559879,0.738363423596,6.34955096365
17.5232021379,5.58572920481,-0.623760214476,6.93919937969
13.4163897695,-3.41184718917,-2.31588385255,4.09884779573
2.93957740112,-9.69942358314,-1.87800749062,-1.50150378822
2.22276503273,-5.77699997712,-2.93013112868,-1.41185537218
0.995952664343,-2.96457637109,-3.39225476675,-3.91220695614
-3.42085970403,-7.33215276507,-3.85437840482,-6.0025585401
-8.35767207242,-16.659729159,-4.7365020429,-7.88291012406
-7.19448444081,-17.347305553,-2.98862568097,-7.67326170802
-6.14129680919,-7.65488194699,-0.680749319035,-4.87361329198
3.79189082242,-0.0824583409703,-2.8828729571,-3.06396487594
-3.42492154596,-3.36003473494,-2.67499659517,-4.8243164599
-4.16173391434,-6.00761112892,1.77287976676,-7.18466804386
6.50145371727,-4.73518752289,1.38075612868,-3.36501962782
3.15464134888,4.81723608313,3.90863249062,5.36462878823
7.4078289805,12.9896596891,4.09650885254,11.8042772043
13.3110166121,9.62208329518,2.42438521448,10.0139256203
13.3542042437,4.1845069012,1.70226157641,6.96357403635
11.6873918753,0.576930507224,2.38013793834,9.09322245239
3.49057950696,2.68935411324,0.638014300268,6.18287086843
5.72376713857,8.40177771928,1.2958906622,4.04251928447
7.78695477019,8.77420132529,5.16376702413,8.41216770051
3.61014240181,-1.60337506868,1.80164338606,-0.888183883448
3.79333003342,-3.83095146265,0.77951974799,-3.69853546741
-3.51348233497,-3.11852785663,-0.00260389008326,-4.58888705136
-4.69029470335,0.333895749398,-1.28472752815,-3.39923863533
0.182892928264,-1.77368064458,-1.30685116622,-3.18959021928
-4.33391944012,-9.79125703855,-2.54897480429,-12.2599418032
-10.1607318085,-13.9388334325,-2.12109844236,-15.6102933872
-5.65754417689,-7.61640982651,-2.04322208043,-10.6206449712
-3.53435654528,3.03601377952,2.0746542815,-4.02099655512
-2.99116891366,3.62843738555,4.00253064343,-4.06134813908
1.16201871795,-3.01913900843,1.24040700536,-5.96169972304
2.39520634957,-4.78671540241,-0.561716632714,-5.192051307
0.658393981183,1.92570820361,1.74615972922,1.22759710905
1.89158161279,6.49813180964,4.16403609115,3.43724552509
-0.135230755586,3.94055541566,0.791912453082,1.85689394113
-2.08204312397,-1.63702097831,-1.19021118499,-2.00345764283
-1.86885549236,-2.51459737229,-1.96233482306,-2.65380922679
-4.07566786074,1.04782623374,-0.474458461129,-4.56416081075
-4.32248022913,1.04024983976,-1.0565820992,-4.89451239471
-7.53929259752,-3.74732655421,-0.848705737273,-5.58486397867
-7.26610496589,-9.03490294819,-2.67082937534,-8.66521556263
-14.5929173343,-14.6324793422,-3.15295301341,-15.0755671466
-9.64972970267,-10.6800557361,-1.67507665148,-9.52591873055
-12.016542071,-2.86763213011,-3.72720028955,-6.01627031451
-10.2033544394,-2.94520852409,-4.51932392762,-6.16662189846
-7.92016680782,-7.98278491806,-4.74144756569,-4.75697348242
-10.1269791762,-8.64036131204,-2.78357120376,-5.57732506638
-8.89379154459,-2.01793770601,-2.31569484183,-4.38767665034
-7.57060391298,5.57448590001,0.582181520102,-2.4880282343
-10.3574162814,5.18690950603,-0.199942117968,-1.47837981826
-8.63422864975,-1.37066688794,-1.42206575604,-2.94873140222
-6.17104101813,-2.47824328192,-0.364189394106,-2.13908298618
-0.987853386519,2.3641803241,-1.18631303218,1.98056542986
2.5753342451,11.2066039301,-2.40843667025,8.98021384591
4.67852187671,6.14902753616,-2.38056030832,5.00986226194
2.06170950833,-0.208548857823,-2.84268394639,-0.150489322014
-0.525102860061,-3.21612525179,-0.21480758446,-2.72084090597
-0.011915228446,-0.453701645776,1.06306877747,0.168807510068
2.97127240317,4.09872196025,-0.849054860599,3.76845592611
0.734460034786,2.03114556627,-0.241178498665,0.55810434215
-5.0923523336,-3.65643082769,-1.98330213673,-2.32224724181
-4.56916470198,-6.14400722167,-1.63542577481,-3.77259882577
0.574022929628,0.478416384358,1.07245058712,-1.15295040973
-2.66278943876,5.93083999037,2.42032694905,3.90669800631
4.34039819286,1.31326359641,1.82820331099,4.11634642235
3.89358582447,-1.62431279758,2.18607967291,2.9959948384
6.43677345609,4.22811080844,3.06395603484,12.1256432544
10.3299610877,7.83053441448,6.45183239677,14.0952916705
8.21314871932,11.2229580205,8.82970875871,11.8649400865
9.44633635093,7.74538162653,3.73758512063,7.12458850256
11.1295239825,4.78780523255,4.12546148256,9.7442369186
16.7173764535,0.720461482568,-4.40531613373,5.45095203488
14.656624216,4.41269092772,-5.40116007256,5.05894147134
15.4558719786,8.57492037288,-1.8470040114,6.4769309078
20.9151197411,9.15714981803,-4.23284795024,9.15492034426
15.9143675037,1.02937926319,-7.10869188908,6.99290978072
13.8336152662,0.131608708347,-5.29453582792,4.57089921718
16.8928630288,7.5138381535,-3.04037976676,9.58888865364
19.5821107913,12.9060675987,0.163776294405,13.4668780901
21.8813585538,10.9882970438,-0.102067644435,8.38486752655
7.06060631639,6.68052648898,-0.277911583275,8.66285696301
4.10985407892,-0.697244065872,-2.23375552211,3.85084639947
6.36910184147,5.72498537929,0.130400539048,4.68883583593
4.44834960401,12.3672148244,1.25455660021,7.77682527239
5.83759736656,11.3194442696,1.14871266137,6.56481470885
3.0668451291,7.06167371476,1.22286872253,10.7128041453
2.77609289164,6.96390315991,0.237024783692,12.6007935818
7.67534065418,13.2761326051,2.19118084485,14.7387830182
8.77458841673,15.3383620502,2.99533690601,14.0267724547
11.1638361793,10.8505914954,2.41949296717,11.8047618911
7.68308394182,-1.01717905946,-0.236350971667,3.8127513276
-1.28766829563,-6.2149496143,-0.742194910505,-0.549259235944
-8.3184205331,-1.79272016914,1.11196115065,1.89873020051
-4.07917277055,0.829509276009,-0.623882788183,2.77671963697
-2.63992500801,-1.73826127884,1.19027327298,4.89470907343
-2.42067724546,-6.98603183368,2.60442933414,1.19269850989
-4.65142948292,-5.82380238852,2.7385853953,-2.27931205365
-7.73218172038,0.108427056635,3.70274145646,-0.241322617194
2.25706604216,5.01065650179,6.21689751762,4.44666681927
3.57631380471,2.77288594695,4.54105357879,3.56465625572
-2.01443843275,-3.9648846079,1.99520963994,-1.02735430782
-1.36519067021,-8.03265516274,1.41936570111,-3.02936487136
-5.09594290767,-7.09042571758,0.103521762267,-4.9213754349
-3.50669514512,-2.21819627243,-0.512322176572,-4.46338599844
-3.16744738258,-1.72596682727,-0.0381661154133,-5.18539656198
-5.53819962004,-5.54373738212,-1.84401005425,-5.21740712553
-7.54895185749,-8.01150793695,-0.229853993093,-7.05941768907
-5.75970409495,8.3507215082,4.57430206807,0.728571747391
-0.0804563324054,13.4529509534,6.87845812923,2.81656118385
5.23879143014,12.3351803985,6.14261419039,5.39455062031
5.55803919269,7.93740984367,6.86677025156,8.54254005677
-2.49271304478,3.62963928883,7.52092631272,4.01052949323
0.59653471777,7.74186873398,6.27508237388,2.09851892968
3.20578248031,9.73409817914,6.40923843504,6.82650836614
2.24503024286,9.02632762429,8.6233944962,6.0644978026
-0.835721994597,2.25855706946,6.03755055736,2.34248723906
-7.80647423206,-0.779213485388,3.74170661852,-1.15952332448
-2.95722646952,0.593015959763,2.42586267968,-1.24153388802
-4.62797870697,3.27524540492,4.29001874084,-4.15354445156
-9.32873094443,0.687474850078,4.674174802,-7.62555501511
-6.95948318189,-3.78029570476,2.21833086316,-9.47756557865
-5.50023541934,-9.6980662596,0.00248692432433,-11.2895761422
-8.8909876568,-6.78583681445,1.10664298549,-12.5815867057
-9.39173989426,-5.1136073693,-1.27920095335,-11.5135972693
-14.0124921317,-7.45137792414,0.17495510781,-12.1556078328
-13.1632443692,-15.829148479,0.339111168971,-18.7176183964
-18.9539966066,-18.0369190338,-2.18673276987,-21.2996289599
-18.7547488441,-11.8446895887,0.0274232912925,-18.3116395234
-15.5555010815,-5.20246014351,0.501579352454,-13.003650087
-14.496253319,-6.25023069835,-3.62426458639,-9.92566065052
-18.4370055565,-13.1080012532,-1.63010852523,-13.9376712141
-19.2577577939,-10.825771808,0.0940475359348,-11.9596817776
-20.2385100314,-7.17354236289,-1.1717964029,-10.3416923411
-12.9992622688,-0.441312917734,-1.63764034174,-7.22370290469
-16.2600145063,-8.21908347257,-4.58348428058,-8.43571346823
-13.8507667437,-12.7768540274,-2.59932821942,-10.7577240318
-10.3615189812,-10.4646245823,-1.09517215826,-6.93973459531
-12.5222712186,-4.72239513711,-1.5110160971,-5.19174515885
-11.2530234561,-1.74016569195,-1.73686003594,-5.6637557224
-6.71377569356,-0.457936246792,-2.22270397477,-1.89576628594
-8.52452793102,-8.68570680163,-1.18854791361,-8.23777684948
-11.0252801685,-9.06347735648,-2.74439185246,-7.66978741302
-7.35603240594,0.238752088677,-2.92023579129,-1.26179797656
-3.86678464339,3.24098153384,0.0339202698669,1.3661914599
-10.7975368808,-3.12678902101,0.72807633103,-5.59581910364
-11.4682891183,-9.69455957585,-1.67776760781,-10.0978296672
-6.36904135576,-6.6223301307,-1.16361154665,-5.07984023073
-4.30979359322,1.24989931446,0.340544514511,1.33814920573
-3.75054583067,1.34212875962,-0.46529942433,0.52613864219
0.318701931872,-6.83564179522,-0.481143363166,-5.15587192135
-7.53205030559,-9.92341235007,0.0430126979918,-5.10788248489
-8.37280254305,-5.36118290491,-0.272831240847,0.0301069515644
-5.93355478049,-4.65895345976,-0.198675179683,-2.02190361198
-4.64430701796,-1.9067240146,-0.91451911852,-2.63391417552
-5.64505925542,0.0455054305567,-0.0603630573605,-0.635924739061
-8.01581149287,-9.00226512429,-2.4662069962,-10.8179353026
2.76343626968,-14.4800356791,-5.70205093504,-12.7499458661
3.81268403221,-4.39780623398,-5.51789487388,-4.66195642968
5.44193179475,-0.565576788817,-5.49373881272,-1.86396699323
3.68117955731,-3.15334734366,-6.84958275156,-4.17597755677
4.42042731985,-15.3311178985,-10.3854266904,-10.9079881203
5.84967508239,-13.4488884533,-7.02127062923,-7.34999868385
4.54892284493,-9.31665900819,-6.43711456807,-3.67200924739
3.52817060747,-2.24442956303,-6.57295850691,0.835980189067
1.80741837002,-7.94220011788,-8.61880244575,-2.39603037448
9.38666613256,-16.7899706727,-10.8046463846,-8.95804093802
1.4459138951,-14.3677412276,-6.06049032343,-5.14005150156
-0.334838342351,-7.1655117824,-3.89633426227,-2.3420620651
7.40440942019,-6.49328233725,-6.37217820111,-4.22407262864
8.54365718273,-7.6510528921,-9.71802213995,-4.75608319218
3.42290494528,-14.5988234469,-8.75386607878,-9.67809375572
0.232152707824,-17.4965940018,-6.64971001762,-11.8401043193
0.141400470362,-11.1243645566,-5.68555395646,-6.12211488281
2.8206482329,-6.63213511147,-4.1613978953,-5.51412544635
-0.890104004546,-7.06990566631,-3.70724183414,-6.48613600989
1.749143758,-7.55767622116,-3.61308577298,-3.13814657343
-0.171608479461,-4.565446776,-1.99892971182,-1.09015713697
5.41763928308,5.74678266916,-1.65477365066,3.65783229948
9.73688704563,12.6390121143,0.579382410502,9.99582173595
3.70613480817,10.3512415595,3.89353847166,8.4138111724
2.00538257071,2.62347100462,2.97769453282,6.46180060886
-0.545369666746,4.91570044978,5.73185059398,4.81979004532
7.4638780958,9.09792989494,3.34600665515,4.04777948178
3.66312585834,11.8901593401,1.87016271631,5.28576891824
-0.477626379114,11.2923887853,4.18431877747,7.4437583547
1.85162138342,5.86461823041,3.93847483863,4.93174779115
0.000869145973411,5.68684767557,2.60263089979,6.70973722761
6.91011690851,11.3090771207,3.11678696095,10.3177266641
10.1193646711,18.3113065659,6.30094302211,13.9257161005
4.5586124336,13.233536011,6.05509908327,8.22370553699
7.55786019615,8.14576545619,4.91925514444,9.73169497344
8.04710795869,5.46799490135,3.2934112056,7.2796844099
4.67635572123,11.2402243465,5.95756726676,8.74767384636
7.84560348378,20.9624537917,6.27172332792,14.3456632828
11.7848512463,18.3246832368,5.44587938908,18.6736527193
10.3040990089,10.486912682,4.38003545024,16.1516421557
11.8733467714,9.90914212713,4.6741915114,13.8896315922
15.402594534,20.5613715723,7.74834757256,18.8876210287
19.1218422965,21.8936010174,8.93250363372,18.1356104651
-5.66961482557,-5.76363735464,-2.22632267443,-2.18061046511
0.868121480744,-10.2031617664,-3.80844382325,-4.73339612708
-0.584142212952,-7.75268617812,-3.58056497208,-5.82618178905
3.84359409336,1.85778941014,-3.70268612091,1.06103254899
6.57133039967,8.4382649984,-2.73480726974,6.21824688702
14.759066706,10.0787405867,-2.23692841857,8.87546122505
9.52680301228,-1.24078382507,-2.44904956739,4.18267556309
2.95453931859,-3.09030823681,-1.30117071622,5.02988990112
7.5222756249,4.58016735145,0.58670813495,5.72710423915
10.1400119312,3.58064293971,0.114586986121,5.41431857719
4.32774823751,1.07111852797,-0.877534162704,3.13153291522
2.27548454382,-6.61840588377,-1.62965531153,-1.09125274675
0.153220850138,-8.5279302955,-2.05177646036,-1.56403840871
-0.809042843561,-1.19745470724,-1.23389760919,4.07317592932
2.58869346275,1.00302088103,-0.356018758015,1.07039026735
0.656429769057,-2.76650353071,-2.00813990685,-1.41239539461
-8.28583392464,-7.40602794245,-3.20026105567,-2.74518105658
-10.5380976183,-8.62555235419,-4.6723822045,-4.46796671855
-5.76036131202,-2.74507676593,-1.11450335333,-1.50075238051
-6.26262500571,6.83539882233,2.80337549785,2.05646195752
-4.2748886994,5.9258744106,-0.228745650984,1.87367629555
-5.97715239309,-0.46365000114,-2.59086679982,3.04089063359
-7.59941608678,-2.39317441289,-3.40298794864,-1.16189502838
-0.181679780479,3.95730117538,-1.81510909747,2.25531930965
-2.23394347417,7.29777676365,-1.7872302463,1.78253364769
-1.62620716786,3.8382523519,-1.19935139512,2.24974798572
-9.59847086155,-4.09127205984,-2.73147254395,-2.53303767625
0.499265444756,0.0992035284289,-2.00359369278,1.42417666179
-1.21299824894,9.95967911669,2.89428515839,5.76139099982
-0.495261942626,10.750154705,4.35216400956,6.74860533785
2.41247436368,9.02063029322,2.02004286073,8.91581967589
2.82021066998,-3.15889411852,-2.22207828809,2.40303401392
3.50794697629,1.88158146974,2.00580056308,4.62024835195
-1.8943167174,12.252057058,3.06367941425,10.27746269
1.90341958892,14.4825326463,0.791558265424,9.04467702802
5.68115589522,5.63300823452,-0.830562883402,5.31189136605
-7.41110779847,4.45348382278,0.497315967768,4.97910570409
-3.56337149216,3.86395941105,2.29519481894,5.33632004212
9.78436481414,6.63443499932,3.17307367011,4.61353438015
-2.95789887955,12.3249105876,4.56095252128,3.77074871819
-2.35016257324,7.88538617584,4.14883137246,3.65796305622
6.81757373307,3.9158617641,3.56671022363,2.22517739425
0.655310039379,4.23633735236,3.5545890748,3.65239173228
2.75304634569,12.7768129406,4.48246792597,8.50960607032
4.61078265199,19.4472885289,4.71034677714,10.6068204084
4.1485189583,12.1277641171,3.41822562832,7.67403474639
1.86625526461,0.928239705405,-0.95389552051,1.22124908442
3.52399157092,0.808715293671,4.59398333066,1.54846342245
11.7917278772,6.71919088194,4.89186218183,3.76567776048
2.20946418354,6.94966647019,3.91974103301,2.33289209852
0.0472004898475,5.05014205846,3.45761988418,2.91010643655
1.32493679615,-1.45938235328,1.87549873535,0.637320774586
3.55267310246,-2.32890676502,2.37337758652,1.12453511262
5.33040940877,0.741568823243,1.85125643769,0.811749450651
4.69814571508,8.21204441151,2.16913528886,2.32896378868
4.28588202138,-1.85748000023,-1.87298585996,-2.32382187328
1.5336183277,-11.077004412,2.15489299121,-4.55660753525
-3.958645366,-7.43652882371,4.74277184238,-1.68939319722
0.909090940309,-5.41605323544,0.790650693554,-5.85217885918
-0.133172753383,-8.22557764719,-1.24147045528,-10.1849645211
-3.88543644708,-8.39510205892,-1.11359160411,-9.69775018311
-1.40770014077,-15.7646264707,0.0942872470696,-11.6605358451
-10.5899638345,-15.2841508824,-0.387833901757,-16.403321507
-1.82222752815,-8.41367529413,0.270044949411,-11.616107169
-0.0144912218384,-5.19319970587,0.477923800587,-7.12889283098
-9.01675491553,-5.83272411761,0.145802651758,-10.9316784929
-11.1090186092,-17.5322485294,-2.77631849707,-15.6444641549
-7.47128230292,-15.0917729411,-1.0184396459,-12.2072498169
-6.99354599661,-10.7912973528,1.21943920527,-12.1800354788
-2.99580969031,-5.53082176457,0.337318056445,-10.3228211408
-1.518073384,-7.7103461763,0.635196907617,-10.2156068028
-9.58033707768,-15.579870588,-1.68692424121,-16.5383924647
-2.47260077138,-10.6693949998,-1.04904539004,-11.4911781267
-4.52486446507,-7.55891941152,-0.401166538864,-9.18396378868
0.77287184124,-2.49844382325,0.856712312307,-3.17674945065
-0.189391852451,-1.77796823499,1.04459116348,-5.07953511262
0.868344453855,-9.03749264673,-1.66752998535,-9.84232077458
-2.25391923984,-8.14701705847,0.750348865822,-5.25510643655
3.28381706647,-4.1065414702,0.868227716994,-0.967892098515
4.29155337278,2.30393411806,3.19610656817,-0.700677760484
-2.27071032091,-2.89559029368,1.88398541934,-4.96346342245
2.84702598539,-1.41511470541,3.10186427051,-7.29624908442
1.6647622917,-7.71463911716,1.16974312168,-6.73903474638
-4.25750140199,2.43583647111,4.07762197285,1.04817959165
-1.25976509568,6.53631205937,2.67550082403,-0.764606070315
-3.20202878938,-1.36321235236,-0.0166203248009,-2.30739173228
-10.1042924831,-8.24273676411,-0.908741473631,-5.22017739425
-12.3865561768,-3.65226117585,1.46913737754,-2.73296305621
-10.5188198704,4.08821441242,2.21701622871,-1.97574871818
-7.17108356414,5.85869000068,2.13489507989,-1.65853438015
-6.25334725783,1.05916558894,2.61277393106,-1.15132004212
-5.35561095153,-4.18035882279,1.48065278223,-2.46410570408
-9.46787464522,-6.20988323453,1.9485316334,-7.92689136605
-1.08013833891,5.38059235372,1.93641048457,-2.06967702802
0.997597967405,10.441067942,-0.225710664254,-0.0524626899823
-0.804665726289,-5.35845646974,-4.61783181308,-5.01524835195
2.21307058002,-10.5979808815,-5.67995296191,-6.15803401392
11.6208068863,-9.14750529322,-5.34207411074,1.05918032412
6.70854319263,-4.70702970496,-5.96419525957,0.34639466215
1.10627949894,0.303445883306,-2.01631640839,0.253609000183
1.01401580525,-2.63607852844,-0.718437557221,-0.259176661784
-1.23824788845,-8.84560294018,-3.03055870605,-7.39196232375
-0.880511582131,-9.50512735191,-4.23267985488,-4.19474798572
-4.34277527582,2.68534823634,-2.30480100371,2.44246635232
-0.965038969516,3.78582382461,-3.14692215253,1.14968069035
4.20269733679,5.28629941287,-4.47904330136,0.186895028384
5.0804336431,-9.07322499886,-5.25116445019,-6.22589063358
-0.731830050594,-2.1827494106,-1.49328559902,-1.39867629555
1.25590625571,0.507726177661,-0.965406747848,1.11853804248
3.80364256203,3.37820176593,-0.197527896671,4.20575238052
6.89137886833,2.28867735418,-1.2496490455,5.12296671855
1.55911517464,-3.14084705756,-2.47177019433,1.10018105658
8.06685148095,-1.23037146929,-3.37389134316,2.28739539462
-2.14541221275,0.460104118967,-2.22601249198,2.28460973265
2.61232409356,4.84057970723,-1.16813364081,3.62182407068
2.80006039987,6.37105529549,-0.380254789641,6.81903840872
2.01779670618,6.24153088376,0.0476240615317,6.25625274675
6.6455330125,11.212006472,-0.164497087299,8.89346708478
3.8332693188,8.18248206028,0.0833817638777,9.10068142282
4.15100562511,10.0229576485,3.60126061505,11.1278957609
2.93874193142,13.7234332368,3.20913946622,11.7751100989
-1.86352176228,-1.60609117494,1.53701831739,7.51232443692
1.02421454403,0.854384413331,2.03489716856,5.49953877495
-0.198049149665,13.0448600016,1.89277601973,11.916753113
4.68968715665,12.9653355898,0.440654870908,11.623967451
5.60742346296,8.25581117812,-0.00146627792128,10.641181789
2.98515976926,4.48628676638,-1.26358742675,8.19839612708
-4.68710392443,-4.15323764536,-0.255708575576,2.18561046512
-6.15521898767,-2.26095200628,0.806348019923,-8.35471675845
-2.35506679048,1.62887167715,-1.59987626456,-5.87366782319
0.215085406708,0.778695360583,1.44389945097,-2.78261888792
