-5.62202034883,-17.7463226744,-0.955868459308,-18.3036482558
-2.98995482168,-9.51916478781,1.39518114241,-9.66010039942
-1.76788929454,-10.3320069012,3.30623074413,-7.85655254303
-6.80582376739,-12.5048490146,3.42728034586,-11.6330046866
-7.21375824024,-8.517691128,4.14832994758,-8.15945683025
-4.3216927131,-11.7905332414,3.1493795493,-10.2159089739
-3.85962718595,-12.0433753548,1.50042915102,-9.86236111747
-4.4875616588,-13.0862174682,-0.868521247257,-11.4388132611
-8.72549613165,-14.5690595816,-2.35747164554,-13.2952654047
-3.74343060451,-11.691901695,1.29357795618,-11.1817175483
-3.39136507736,-10.6947438084,1.59462755791,-10.5381696919
-4.76929955021,-7.03758592176,2.11567715963,-10.1146218355
-8.19723402306,-3.94042803516,4.01672676135,-11.0110739791
-7.48516849592,-4.58327014855,2.65777636307,-9.25752612273
-5.55310296877,-1.14611226195,2.28882596479,-3.71397826635
-4.46103744162,-1.91895437534,1.46987556651,-4.73043040995
-1.89897191448,-1.01179648874,-1.89907483176,-4.84688255356
-1.54690638733,-2.31463860213,-2.69802523004,-7.48333469717
-5.38484086018,-0.377480715528,1.03302437168,-3.15978684078
-0.692775333038,0.319677171079,2.7640739734,1.24376101561
-2.20070980589,0.606835057682,3.15512357512,-0.932691127999
-1.42864427875,2.62399294429,4.00617317684,-1.84914327161
1.6334212484,1.66115083089,3.63722277856,0.624404584783
-1.84451322445,2.6483087175,3.77827238028,4.26795244117
-1.1824476973,3.0854666041,3.19932198201,7.90150029756
-0.290382170155,3.0126244907,1.86037158373,6.71504815396
-1.46831664301,3.08978237731,1.18142118545,5.09859601034
-2.63625111586,-2.03305973608,0.672470787169,2.12214386674
-1.86418558871,-4.37590184948,-0.416479611109,0.305691723128
-0.792120061571,-3.72874396287,-0.47543000939,1.41923957952
-1.88005453442,-2.13158607627,0.175619592332,3.28278743591
-5.23798900728,-0.844428189663,1.25666919405,-0.673664707701
-6.27592348013,-3.15727030306,0.947718795775,-1.86011685131
-9.61385795298,-6.19011241645,-1.3212316025,-5.08656899492
-10.3317924258,-7.22295452985,-2.35018200078,-7.08302113853
-6.00972689869,-5.46579664325,-2.67913239906,-3.48947328214
-4.37766137154,-2.61863875664,-4.47808279734,-1.63592542575
-5.28559584439,-1.08148087003,-3.77703319562,-1.42237756936
-6.20353031725,-3.55432298343,-4.7559835939,-2.00882971296
-5.8814647901,-4.47716509683,-6.47493399217,-2.59528185657
-2.66939926295,-4.71000721022,-6.40388439045,-2.95173400018
-1.13733373581,0.997150676387,-6.55283478873,2.51181385621
0.0847317913431,0.12430856299,-6.52178518701,0.0553617125988
1.01679731849,1.1814664496,-3.03073558529,0.648909568989
6.05886284564,1.0386243362,-2.43968598357,0.802457425381
9.52092837278,1.80578222281,-3.16863638185,3.70600528177
9.37299389993,3.16294010941,-1.84758678013,4.80955313816
4.49505942708,5.37009799602,0.793462821595,9.01310099455
2.20712495422,8.01725588262,2.83451242332,8.95664885094
4.34919048137,9.39441376923,2.08556202504,8.20019670734
9.88125600852,11.2615716558,1.48661162676,10.5837445637
8.30332153566,12.6787295424,1.49766122848,9.43729242012
6.64538706281,11.755887429,0.698710830202,9.83084027651
3.57745258996,3.29304531565,-0.950239568076,2.4943881329
0.949518117104,-1.33979679775,-2.81918996635,-5.02206401071
-3.47841635575,-1.86263891114,-4.66814036463,-5.33851615432
-3.7563508286,1.09451897546,-4.17709076291,-1.76496829793
-0.124285301452,4.86167686207,-3.80604116119,1.10857955846
12.1377802257,8.98883474867,-3.13499155947,8.01212741485
22.2598457528,7.39599263528,-0.263941957748,12.1256752712
14.52191128,8.34315052188,-3.27289235603,9.81922312763
3.60397680714,12.6703084085,-2.76184275431,9.63277098402
-1.63395766572,9.10746629509,-3.33079315258,9.46631884042
1.37810786143,11.1546241817,-2.96974355086,10.5098666968
7.47017338857,8.2117820683,-2.82869394914,8.8534145532
9.13223891572,8.9689399549,-4.00764434742,9.76696240959
10.5143044429,10.0060978415,-3.5565947457,11.190510266
6.16636997001,8.97325572811,-0.815545143976,8.66405812237
8.93843549716,9.50041361472,-1.19449554226,9.14760597876
7.32050102431,9.48757150132,-1.92344594053,9.21115383515
4.40256655146,12.0047293879,1.05760366119,9.15470169154
9.4046320786,15.0818872745,-1.28134673709,10.4682495479
11.9266976057,13.1190451611,-1.99029713537,9.64179740432
12.8087631329,10.0762030477,-1.51924753365,9.41534526072
7.93082866004,10.3733609344,-0.278197931926,8.19889311711
9.41289418719,9.99051882096,0.752851669795,7.4324409735
9.49495971433,8.72767670756,1.27390127152,5.86598882989
9.64702524148,14.3048345942,2.32495087324,11.3395366863
7.82909076864,16.7119924808,3.83600047496,15.4430845427
9.88115629578,16.4491503674,2.20705007668,15.1966323991
12.0832218229,17.496308254,2.1880996784,16.1701802555
8.60528735007,12.5434661406,3.82914928012,11.6037281118
3.32735287722,11.6206240272,2.52019888184,8.58727596823
0.589418404368,6.6877819138,0.561248483566,5.98082382462
4.70148393151,2.7249398004,-0.997701914714,5.93437168101
4.24354945866,3.05209768701,-0.506652312992,5.2779195374
4.50561498581,8.68925557361,2.27439728873,10.2814673938
7.33768051296,8.81641346022,2.97544689045,12.9150152502
8.2597460401,9.72357134682,2.55649649217,13.4885631066
8.17181156725,9.42072923342,3.38754609389,11.742110963
7.84387709439,7.28788712003,2.27859569561,10.2856588194
7.97594262154,7.90504500664,0.589645297336,9.80920667575
3.93800814869,2.13220289324,0.590694899056,3.68275453214
3.53007367584,-0.0706392201537,0.481744500777,2.02630238853
1.60213920298,0.96651866645,0.692794102499,6.66985024492
3.78420473013,-0.646323446945,2.24384370422,5.85339810131
4.40627025727,1.31083443966,1.82489330594,4.3769459577
5.26833578442,-0.982007673734,2.65594290766,1.20049381409
0.74040131157,-1.59484978713,1.54699250938,-2.47595832951
-3.86753316128,-3.61769190052,1.10804211111,-5.74241047312
-2.33546763413,-2.86053401392,0.959091712828,-6.34886261673
-0.0834021069859,-0.683376127319,1.48014131455,-4.61531476034
-6.57133657984,-0.716218240712,3.20119091627,-2.47176690395
-8.74927105269,-2.28906035411,1.58224051799,-4.64821904756
-6.27720552555,-3.4019024675,0.0632901197132,-3.95467119117
-2.1951399984,-3.6947445809,1.43433972143,-5.30112333478
-0.463074471252,-5.17758669429,0.0553893231554,-5.21757547839
-0.761008944108,-5.86042880769,-1.19356107512,-4.484027622
-2.93894341696,-8.22327092108,-1.0325114734,-6.06047976561
-7.03687788981,-6.30611303448,-0.241461871679,-6.70693190922
-0.224812362667,-4.65895514787,-1.26041226996,-4.48338405282
-3.13274683552,-6.10179726127,-0.719362668236,-7.38983619643
-4.53068130837,-5.39463937466,-1.24831306652,-5.63628834004
-4.73861578123,-8.19748148806,-2.46726346479,-7.65274048365
-5.37655025408,-9.91032360145,-3.20621386307,-9.34919262726
-5.73448472693,-6.25316571485,-1.87516426135,-5.15564477087
-2.61241919978,-4.85600782824,-0.794114659629,-8.15209691448
-2.45035367264,-6.49884994164,-0.39306505791,-8.35854905809
-10.4982881455,-7.04169205503,0.267984543812,-8.3850012017
-12.4262226183,-14.0045341684,-1.18096585447,-16.0414533453
-13.6941570912,-14.7073762818,0.880083747255,-17.0279054889
-15.8220915641,-12.1702183952,2.50113334898,-11.7843576325
-13.2800260369,-13.4730605086,2.5521829507,-13.5108097761
-13.0479605098,-11.785902622,2.19323255242,-12.9272619197
-10.4358949826,-12.9587447354,2.04428215414,-11.4837140634
-10.7838294555,-13.9515868488,1.60533175586,-13.700166207
-5.53176392831,-17.1844289622,-0.533618642416,-16.0066183506
-9.06969840117,-18.2172710756,-1.33256904069,-14.3330704942
-0.460879360457,10.2218023256,-0.411035610467,11.4568713663
2.25645609207,11.4503873775,0.698772775129,10.837263894
4.7637915446,10.1289724295,-0.561418839272,11.7276564217
5.93112699713,11.6775574815,-0.031610453676,12.9780489494
5.69846244965,12.5061425334,1.32819793192,12.1784414771
9.83579790218,12.0647275854,1.85800631752,12.5588340048
9.78313335471,9.42331263734,0.307814703119,8.39922653246
4.85046880723,7.0418976893,-1.33237691128,4.41961906015
1.36780425976,8.81048274126,0.587431474316,6.70001158785
0.685139712288,4.80906779322,2.25723985991,3.26040411554
-7.01752483519,6.08765284518,1.95704824551,2.67079664324
-7.84018938266,7.67623789714,2.66685663111,5.38118917094
3.21714606986,5.4648229491,1.40666501671,6.63158169863
2.17448152239,-0.396591998942,-3.22352659769,2.65197422633
0.701816974921,0.261993053016,-0.233718212097,2.27236675403
-1.54084757256,-2.79942189502,2.7060901735,-2.12724071828
-2.87351212003,-2.31083684307,0.0158985590988,-4.20684819058
1.8238233325,-0.272251791106,-0.654293055304,-0.566455662885
8.74115878503,4.93633326086,0.0955153302948,5.53393686481
9.81849423756,3.71491831281,0.465323715891,4.68432939251
12.9158296901,3.84350336477,1.10513210149,5.15472192021
8.56316514261,5.21208841673,0.144940487089,6.6551144479
6.42050059513,3.61067346869,0.474748872684,4.7755069756
3.25783604766,2.35925852065,1.29455725828,2.02589950329
6.26517150019,-0.972156427393,0.904365643883,1.75629203099
7.65250695272,1.86642862457,2.48417402948,4.92668455869
10.7198424052,4.10501367653,2.03398241508,7.00707708638
10.4371778578,1.38359872849,0.463790800675,1.03746961408
12.3545133103,2.23218378045,0.673599186273,0.0978621417762
10.7218487628,1.79076883241,3.57340757187,3.45825466947
4.29918421535,2.36935388437,5.06321595747,5.08864719717
2.82651966788,-0.0820610636729,3.54302434307,-0.190960275133
-3.5061448796,-2.40347601171,1.97283272866,-2.20056774744
-4.14880942707,-0.954890959758,1.20264111426,-0.950175219741
-2.58147397454,-2.8963059078,-0.347550500139,-1.61978269205
-1.96413852202,-6.59772085584,-0.157742114543,-4.25939016435
-3.74680306949,-6.32913580388,-1.18793372894,-6.39899763665
-6.21946761696,-5.72055075192,-2.44812534335,-5.52860510896
-5.49213216444,-3.80196569996,-1.21831695775,-3.74821258126
-5.35479671191,-5.813380648,-2.50850857215,-4.23782005356
-5.74746125938,-10.654795596,-4.20870018655,-7.89742752587
0.789874193146,-10.6362105441,-5.93889180095,-6.44703499817
-2.71279035433,-10.8276254921,-5.53908341535,-7.90664247047
-1.1654549018,-9.88904044016,-5.76927502976,-7.43624994278
-2.44811944927,-10.7404553882,-4.56946664416,-6.17585741508
-7.27078399674,-11.2318703362,-2.27965825856,-9.60546488738
-10.3734485442,-10.6032852843,-1.69984987296,-11.7050723597
-6.74611309169,-12.8147002323,-3.05004148737,-11.234679832
-9.05877763917,-8.51611518037,-2.12023310177,-7.99428730429
-8.49144218664,-5.74753012841,-0.540424716171,-5.0238947766
-7.79410673411,-5.08894507645,0.419383669427,-5.0435022489
-6.86677128158,-0.490360024491,3.29919205502,-2.42310972121
-8.35943582905,0.718225027471,2.32900044062,-3.85271719351
-6.42210037653,1.25681007943,2.67880882622,-4.53232466581
-6.124764924,1.08539513139,4.99861721182,-1.89193213811
-4.37742947148,-0.146019816653,3.71842559742,-1.04153961042
-2.07009401895,-0.227434764693,1.35823398302,0.458852917278
-3.02275856642,0.801150287265,-0.481957631388,0.569245444975
0.384576886103,-1.03026466077,-4.42214924579,2.10963797267
0.261912338632,-4.25167960882,-7.06234086019,-0.589969499633
1.20924779116,-5.98309455686,-7.85253247459,-1.28957697194
2.73658324368,-2.0545095049,-6.36272408899,3.20081555576
7.63391869621,-3.32592445294,-4.7129157034,0.341208083457
10.6212541487,0.342660599024,-2.3731073178,2.13160061115
7.20858960126,1.33124565098,-0.393298932202,4.95199313885
4.80592505379,-2.80016929706,-0.503490546605,2.73238566654
-0.28673949368,-5.7515842451,0.396317838993,-2.44722180576
-8.07940404115,-6.51299919314,-0.163873775409,-5.98682927806
-12.2320685886,-7.19441414118,0.815934610189,-9.26643675036
-16.0447331361,-7.32582908922,3.95574299579,-9.04604422267
-7.31739768357,-5.11724403726,5.11555138138,-9.84565169497
-4.69006223105,-2.8786589853,6.00535976698,-12.7052591673
-7.77272677852,-1.09007393334,5.03516815258,-10.6348666396
-6.33539132599,1.10851111861,4.02497653818,-7.59447411188
-10.0780558735,-4.17290382943,4.21478492378,-10.9640815842
-15.1407204209,-4.65431877747,2.46459330937,-9.60368905649
-13.0133849684,-6.06573372551,-2.12559830503,-10.4532965288
-8.69604951588,-4.83714867355,-1.34578991943,-7.9029040011
-7.76871406336,-1.98856362159,-0.0859815338317,-4.5925114734
-5.08137861083,-2.49997856963,-2.20617314823,-3.59211894571
-1.4740431583,0.468606482333,-2.37636476263,-3.25172641801
-3.20670770578,0.49719153429,-2.08655637704,-3.68133389031
1.74062774675,-0.084223413749,-0.996747991439,0.0990586373846
0.387963199279,1.41436163821,-1.67693960584,2.84945116508
-0.164701348196,-0.507053309833,-1.19713122024,0.0298436927787
-2.45736589567,-3.69846825787,0.0726771653553,-4.63976377953
-1.78003044314,-7.15988320591,0.962485550952,-9.80937125183
-2.28269499062,-7.38129815396,0.882293936549,-8.90897872413
-7.15535953809,-6.08271310199,1.71210232215,-8.63858619644
-8.25802408556,-6.12412805004,2.95191070774,-10.2081936687
-9.30068863303,-6.65554299808,3.01171909334,-10.837801141
-14.7933531805,-11.6469579461,-0.0584725210592,-14.6574086133
-11.206017728,-12.3283728942,-0.778664135461,-17.0070160857
-10.3786822755,-8.3097878422,0.151144250138,-15.306623558
-5.81134682292,-9.78120279024,-2.15904736427,-12.6462310303
-5.5940113704,-6.96261773828,-3.87923897867,-9.55583850256
0.0933240821287,-3.74403268632,-4.22943059307,-4.95544597487
1.24065953465,1.31455236563,-0.739622207471,-0.685053447167
3.38799498718,4.6031374176,-0.999813821873,2.68533908053
5.34533043971,6.52172246956,-1.74000543628,6.10573160823
8.14266589224,7.36030752152,-1.43019705068,10.3961241359
4.26000134476,5.61889257348,-1.11038866508,8.07651666362
3.86733679729,5.34747762544,0.389419720517,5.38690919131
3.65467224982,1.79606267739,0.689228106115,4.24730171901
4.60200770234,2.42464772935,1.97903649172,3.10769424671
3.10934315487,1.15323278131,1.36884487731,1.4580867744
0.256678607398,0.481817833272,1.47865326291,0.898479302099
1.89401405992,-0.80959711477,-1.14153835149,-1.2911281702
2.26134951245,0.818987937189,-3.05172996589,1.56926435749
1.19868496498,-1.29242701085,-2.1619215803,1.74965688519
3.14602041751,-0.13384195889,-1.5021131947,1.59004941289
7.05335587003,2.48474309307,-1.7723048091,4.63044194058
7.81069132256,5.23332814503,-1.5324964235,8.68083446828
6.03802677508,6.85191319698,-1.1626880379,7.65122699597
5.97536222761,5.42049824894,0.0771203476943,7.98161952367
5.42269768014,3.58908330091,-0.0830712667102,4.38201205137
6.17003313266,8.37766835287,0.71673711889,9.84240457907
8.52736858519,8.08625340482,0.416545504488,9.88279710676
8.17470403772,9.60483845678,0.616353890084,9.10318963446
6.71203949025,11.3334235087,1.34616227568,11.7335821622
8.83937494277,10.3020085607,1.11597066128,11.2639746899
11.2167103953,11.4005936127,2.55577904688,11.6443672175
7.94404584783,10.7991786646,2.97558743248,11.9647597452
6.76138130036,9.34776371658,3.48539581807,11.5551522729
3.26871675288,5.66634876854,1.28520420367,11.2255448006
3.56605220541,3.0049338205,0.205012589271,9.47593732833
1.00338765794,3.27351887246,1.70482097487,6.43632985603
1.39072311046,4.91210392442,3.72462936047,8.31672238372
8.54982921512,14.9301998547,7.7717877907,15.1649491279
5.20150267236,11.4215771207,6.92208074872,12.7480343286
9.88317612961,9.70295438679,4.43237370674,11.4611195294
9.71484958685,8.90433165286,3.79266666476,11.7042047301
3.60652304409,6.29570891893,2.97295962278,6.71728993087
1.46819650134,7.057086185,2.2632525808,2.33037513161
4.28986995858,4.87846345107,1.22354553882,2.88346033235
5.64154341582,3.53984071713,2.16383849684,2.90654553309
-0.196783126939,3.5012179832,2.39413145486,0.949630733836
0.994890330301,5.02259524927,2.31442441288,3.43271593458
4.08656378755,6.84397251534,2.5647173709,3.73580113532
6.23823724479,5.81534978141,1.83501032892,5.35888633606
3.54991070203,5.26672704748,3.52530328694,3.3919715368
2.73158415927,2.71810431354,1.06559624496,1.08505673754
0.303257616513,-0.540518420385,-2.20411079702,-2.38185806172
1.16493107376,1.37085884568,-0.953817838996,-2.20877286097
1.126604531,2.35223611175,1.38647511902,0.304312339769
2.47827798824,0.0636133778171,1.81676807704,-1.73260245949
1.03995144548,0.824990643887,1.93706103507,-1.10951725875
3.66162490272,1.25636790995,1.08735399309,-0.216432058007
5.01329835997,2.41774517602,1.25764695111,0.176653142737
-0.765028182788,1.08912244209,3.11793990913,0.259738343477
-2.32335472555,-3.39950029184,1.58823286715,-5.91717645578
-4.72168126831,-2.90812302577,1.31852582517,-5.58409125504
-1.54000781107,-0.8467457597,0.118818783189,-3.4910060543
2.40166564618,0.0546315063657,0.329111741208,-3.82792085356
-1.18666089658,1.75600877243,-0.0405953007703,-1.75483565281
-2.58498743934,1.8773860385,-0.820302342749,0.158249547929
-3.0833139821,-0.581236695431,0.819990615269,-2.45866525133
0.948359475147,1.59014057064,1.32028357329,-0.535580050589
-2.36996706761,-0.728482163293,0.340576531313,-2.62249484985
-2.51829361037,-5.74710489723,-0.769130510667,-4.83940964911
0.933379846872,-4.44572763116,-0.958837552647,-3.66632444836
-1.94494669589,-6.76435036509,0.031455405373,-4.94323924762
-2.20327323864,-8.75297309902,-1.81825163661,-7.16015404688
0.228400218599,-10.0915958329,-3.41795867858,-9.39706884614
-1.54992632416,-12.2702185669,-4.16766572056,-7.9539836454
-5.67825286691,-12.4688413008,-3.42737276254,-8.31089844466
-8.05657940967,-9.71746403474,-3.30707980452,-6.75781324391
-2.66490595243,-10.7660867687,-3.8567868465,-8.52472804317
-3.95323249519,-7.06470950261,-3.82649388848,-8.19164284243
-5.35155903795,-7.89333223654,-2.96620093046,-5.76855764169
-7.74988558071,-10.7719549705,-2.31590797244,-10.5354724409
-12.0082121235,-12.1505777044,-3.13561501442,-14.8023872402
-12.8065386662,-8.20920043834,-1.8353220564,-7.98930203946
-11.094865209,-5.61782317227,1.30497090162,-3.74621683872
-2.81319175173,-5.5164459062,2.02526385964,-1.47313163798
-8.28151829449,-4.77506864013,2.57555681766,-2.82004643724
-7.97984483725,-2.38369137406,2.08584977568,-1.2669612365
-7.81817138001,-4.542314108,-1.3238572663,0.136123964243
-4.78649792277,-6.88093684192,-4.51356430828,-4.94079083501
-5.89482446553,-7.25955957586,-6.18327135026,-5.56770563427
-7.94315100828,-8.70818230979,-4.92297839224,-7.11462043353
-6.37147755104,-6.13680504372,-3.30268543422,-4.66153523279
-3.4698040938,-3.62542777765,-3.03239247619,-0.908450032048
-2.47813063656,-2.25405051158,-3.40209951817,-0.225364831305
-3.43645717932,-4.57267324552,-2.30180656015,-2.31227963056
-5.29478372207,-5.04129597945,-2.23151360213,-2.33919442982
-8.19311026483,-4.35991871338,-3.76122064411,-1.55610922908
-4.47143680759,-4.28854144731,-3.84092768609,-1.83302402834
0.740236649654,-3.83716418124,-2.85063472807,-2.9799388276
-2.3780898931,-2.80578691517,-2.33034177005,-3.24685362686
-5.06641643586,-2.06440964911,-4.05004881203,-2.54376842611
-4.30474297862,1.15696761697,-3.00975585401,1.83931677463
-3.84306952138,0.538344883033,-0.609462895989,-0.13759802463
3.56860393586,3.5197221491,-1.02916993797,4.35548717611
2.12027739311,4.88109941517,-1.17887697995,7.96857237685
-1.97804914965,1.65247668124,-0.208584021928,4.5016575776
7.14362430759,2.12385394731,-1.89829106391,5.38474277834
5.10529776484,2.01523121338,-4.43799810589,4.39782797908
2.91697122208,-0.0833915205585,-5.25770514787,-0.209086820181
1.89864467932,-2.02201425449,-4.06741218985,-0.776001619439
2.36031813656,0.689363011581,-3.12711923183,2.5470835813
1.9419915938,3.55074027765,-2.3068262738,2.75016878204
1.37366505104,5.88211754372,-1.20653331578,2.49325398279
0.605338508285,4.21349480978,-0.356240357763,4.32633918353
6.19701196553,1.06487207585,-0.655947399742,3.03942438427
2.33868542277,3.55624934192,1.13434555828,2.68250958501
0.410358880014,4.65762660799,0.784638516297,3.50559478575
-0.387967662744,4.23900387406,-0.595068525681,3.6086799865
4.3437057945,4.75038114013,-3.40477556766,1.93176518724
-2.42462074826,5.9417584062,-1.26448260964,3.89485038798
4.46705270898,3.73313567226,0.0358103483795,5.91793558872
4.25872616622,3.24451293833,0.7161033064,0.441020789462
-0.339600376534,4.8658902044,3.22639626442,2.0841059902
-1.75792691929,3.94726747047,1.88668922244,2.41719119095
2.90374653795,3.79864473654,0.196982180461,3.17027639169
2.91541999519,3.0700220026,0.0672751384827,-0.766638407571
4.62709345243,2.71139926867,-0.122431903495,-1.22355320683
8.76876690967,0.682776534744,-2.55213894548,-0.110468006089
8.62044036692,1.38415380081,-2.61184598746,3.48261719465
4.05211382416,1.07553106688,-2.83155302943,4.41570239539
6.7637872814,1.16690833295,-1.21126007141,5.10878759614
4.46546073865,3.47828559902,0.629032886605,2.87187279688
7.51713419589,3.00966286509,2.35932584463,5.94495799762
5.33880765313,2.66104013115,1.95961880265,6.38804319836
8.08048111037,-1.84758260278,-0.0400882393333,2.0511283991
3.12215456761,-1.82620533671,0.230204718688,2.02421359985
3.51382802486,-1.79482807064,0.290497676709,2.39729880059
0.995501482099,-3.82345080457,-1.55920936527,2.26038400133
0.177174939341,-4.1820735385,-1.95891640725,0.773469202069
2.19884839658,-1.02069627244,-1.43862344923,3.02655440281
5.81052185383,-0.459319006368,1.32166950879,3.84963960355
11.8321953111,1.3120582597,4.63196246681,7.6027248043
15.1038687683,2.37343552577,4.62225542483,10.345810005
-0.90445777445,8.52481279184,3.08254838285,10.3188952058
-3.1127843172,9.41619005791,3.40284134087,8.92198040652
1.20888914003,11.077567324,5.02313429889,10.3250656073
-0.319437402723,12.46894459,3.69342725691,9.988150808
-1.75776394548,14.0403218561,5.59372021493,12.1312360087
0.613909511765,10.1116991222,5.49401317296,6.76432120949
1.925582969,11.9930763882,6.35430613098,10.3274064102
1.93725642624,5.91445365432,4.654599089,6.10049161097
4.64892988349,0.935830920385,3.23489204702,-0.536423188289
0.340603340734,0.22720818645,1.09518500504,-1.44333798755
-3.57772320203,0.528585452521,1.17547796306,-3.52025278681
-4.17604974479,-4.88003728141,0.265770921078,-7.50716758606
-9.30437628754,-2.59866001534,0.296063879099,-6.03408238532
-10.6327028303,-2.94728274927,-0.43364316288,-6.42099718458
-5.31102937306,-3.36590548321,1.48664979514,-10.7679119838
-3.86935591582,0.885471782865,2.86694275316,-5.0448267831
-2.89768245858,-3.02315095107,1.48723571118,-6.15174158235
-1.27600900133,-6.121773685,-1.0824713308,-9.05865638161
-0.16433554409,-4.00039641893,-0.712178372778,-6.85557118087
-1.10266208685,-8.39901915286,-2.02188541476,-10.1824859801
-2.8709886296,-7.60764188679,-1.75159245674,-9.27940077939
-3.19931517236,-6.99626462073,-0.511299498716,-8.56631557865
-1.98764171512,-5.83488735466,0.318993459305,-8.7732303779
-3.93646075581,-2.63145348836,0.221489825582,-3.86412427326
-4.39365354902,-1.76042174052,0.499362525179,-3.58206129258
-1.40084634224,-0.0193899926671,0.0872352247752,-3.3499983119
-1.90803913545,-3.14835824482,-1.42489207563,-5.31793533122
-2.70523192867,-4.16732649697,-1.36701937603,-4.81587235054
-2.27242472189,-4.77629474912,-1.06914667643,-5.45380936986
-0.969617515104,-3.11526300127,-2.53127397684,-4.88174638917
-4.53681030832,0.775768746575,-1.72340127724,-1.99968340849
-2.12400310153,0.506800494422,-1.12552857764,0.802379572189
1.05880410525,3.07783224227,-1.06765587804,2.73444255287
1.22161131203,6.31886399012,-0.099783178448,6.07650553355
3.95441851882,3.30989573797,-0.0719104788495,4.00856851423
7.1572257256,5.83092748582,2.01596222075,8.01063149491
10.9400329324,4.54195923367,2.67383492035,8.58269447559
13.8528401392,1.45299098151,0.881707619943,5.21475745628
8.04564734596,0.634022729362,0.779580319539,4.05682043696
2.90845455274,-0.394945522788,2.17745301914,1.69888341764
-2.93873824047,0.746086225059,2.87532571873,0.860946398319
-1.03593103369,-3.50288202709,1.59319841833,-2.106990621
6.8168761731,-2.58185027925,0.911071117927,1.18507235968
1.69968337988,0.679181468604,2.63894381752,2.57713534036
1.26249058666,-4.20978678355,1.12681651712,-2.02080167896
2.63529779345,-2.0387550357,2.63468921672,-0.618738698275
2.09810500023,-0.98772328785,4.52256191632,0.323324282406
2.42091220702,0.103308459999,3.77043461591,0.0453872630878
-0.706280586201,-0.405659792155,2.75830731551,-2.16254975623
