-28.9808103198,-13.6606577035,17.3472965116,-17.1241678779
-28.7811543502,-12.6629726412,17.6473280134,-17.916742498
-24.8714983806,-11.195287579,19.3873595152,-12.569317118
-21.961842411,-12.2576025167,19.227391017,-11.111891738
-15.0421864414,-1.74991745445,21.3674225188,-6.31446635805
-12.6925304718,-5.43223239219,18.2974540206,-7.60704097809
-8.11287450215,2.32545267007,20.3074855223,0.390384401879
-11.6932185325,15.3031377323,26.2675170241,7.88780978185
-9.50356256295,3.02082279459,18.7075485259,-0.824764838184
-8.12390659334,-13.7914921431,8.25758002769,-11.8773394582
-5.26425062374,-11.2038070809,12.8376115295,-8.75991407825
5.17540534586,-11.8161220186,10.7776430313,-9.11248869828
-0.324938684535,-12.1384369564,9.24767453305,-11.6950633183
-5.35528271493,-5.77075189411,10.1377060348,-9.00763793835
-4.15562674533,-1.87306683185,8.74773753662,-6.58021255838
-3.77597077573,-3.10538176959,7.35776903841,-2.41278717841
-3.24631480613,1.09230329267,9.46780054019,0.32463820155
-4.00665883652,2.57998835493,9.41783204198,1.04206358152
2.16299713308,5.74767341719,11.3778635438,3.28948896149
2.22265310268,7.34535847945,12.1178950455,3.38691434146
0.122309072287,0.453043541705,9.71792654733,4.04433972142
-2.29803495811,0.0707286039651,7.89795804912,0.741765101386
-8.41837898851,0.0184136662247,5.7279895509,-0.630809518647
-2.47872301891,-3.83390127152,4.46802105269,0.476615861324
1.4509329507,-0.826216209256,2.29805255447,4.68404124129
-0.489411079701,-1.078531147,-0.86191594374,3.19146662126
0.200244889902,-4.06084608474,-2.34188444195,3.31889200122
3.5299008595,-6.68316102248,-2.57185294017,0.91631738119
1.71955682911,-9.99547596022,-5.08182143838,-2.31625723884
-5.10078720129,-3.56779089796,-2.3117899366,-2.24883185887
-0.321131231689,-3.5301058357,-3.19175843481,-2.43140647891
-1.04147526209,-7.06242077344,-2.77172693303,-7.03398109894
-2.29181929248,-0.814735711179,-1.59169543124,0.663444281025
3.82783667712,-1.62705064892,-4.26166392946,2.75086966099
4.00749264672,-1.60936558666,-7.26163242767,0.258295040963
7.53714861633,0.398319475598,-5.17160092589,3.06572042093
8.24680458593,5.66600453786,-4.3215694241,7.90314580089
10.3264605555,5.41368960012,-5.31153792231,8.58057118086
18.4161165251,1.31137466238,-4.67150642053,6.88799656083
15.7957724947,15.6590597246,-4.16147491874,12.8254219408
11.3454284643,3.5567447869,-10.851443417,7.26284732076
9.79508443394,6.34442984916,-8.24141191517,8.97027270073
12.5947404035,8.10211491142,-8.29138041339,6.6776980807
12.3643963731,10.5297999737,-8.2313489116,5.30512346066
14.0840523427,7.72748503594,-6.98131740982,9.85254884063
13.9237083123,12.9751700982,-4.78128590803,12.2999742206
17.943364282,11.6028551605,-6.26125440625,10.1173996006
21.5230202516,12.5305402227,-6.02122290446,12.5848249805
15.2826762212,10.028225285,-5.89119140267,12.4522503605
14.8823321908,11.6059103472,-7.73115990089,8.95967574047
10.3119881604,14.3935954095,-7.3811283991,11.5771011204
6.80164412997,4.30128047175,-9.82109689732,7.1445265004
12.4613000996,2.95896553401,-10.8510653955,4.56195188037
10.0409560692,11.7366505963,-10.3210338937,7.24937726033
13.9906120388,15.7443356585,-11.131002392,11.0568026403
17.9002680084,15.1420207208,-11.2509708902,12.2742280203
15.959923978,10.5297057831,-9.34093938839,9.76165340024
12.6895799476,4.07739084531,-15.1309078866,7.03907878021
11.0092359172,-6.63492409243,-17.3008763848,1.90650416017
7.13889188679,1.74276096983,-13.980844883,5.25392954014
10.7185478564,2.70044603209,-16.2008133812,3.38135492011
15.878203826,3.26813109435,-13.2507818795,4.68878030008
4.72785979559,8.31581615661,-14.5607503777,6.65620568004
6.7975157652,2.02350121887,-16.0407188759,1.97363106001
12.6971717348,4.52118628113,-12.3806873741,3.88105643998
8.1768277044,6.83887134339,-11.0406558723,6.17848181994
4.136483674,14.6165564056,-8.52062437054,10.2959071999
10.7261396436,-1.50575853209,-12.3305928688,6.30333257988
10.5657956132,10.3719265302,-9.76056136697,6.47075795984
9.11545158281,14.6996115924,-11.0905298652,7.95818333981
2.31510755241,-2.51270334531,-13.8204983634,1.27560871978
-2.89523647798,-8.17501828305,-14.3004668616,-4.34696590025
-0.28558050838,-3.44733322079,-13.3404353598,-1.49954052029
-2.00592453878,-5.01964815854,-12.740403858,-4.10211514032
2.28373143083,0.498036903726,-9.08037235625,-4.22468976035
-3.55661259957,5.89572196599,-7.14034085447,1.75273561962
-5.27695662997,1.13340702824,-10.1903093527,-0.499839000418
-4.89730066037,-4.1489079095,-10.2902778509,-6.66241362045
-8.54764469076,2.07877715276,-9.60024634911,-4.28498824048
-10.0179887212,-0.0135377849765,-11.8602148473,-8.96756286052
-15.5183327516,-20.1958527227,-15.2601833455,-16.6401374806
-5.66867678196,-16.5881676605,-13.4601518438,-17.1727121006
-11.5290208124,-16.4404825982,-13.670120342,-14.4552867206
-5.44936484275,-6.83279753594,-11.1500888402,-7.00786134065
-4.59970887315,-3.50511247368,-11.3500573384,-4.72043596068
-1.70005290355,3.92257258858,-10.5800258366,-0.533010580712
-6.48039693394,-3.89974234916,-11.5899943348,-1.79558520075
-10.4407409643,-19.7120572869,-12.359962833,-14.4381598208
-9.77108499474,6.45562777536,-5.89993133126,-2.62073444081
-14.5814290251,-5.44668716238,-10.4898998295,-5.63330906085
-11.0717730555,-7.12900210012,-11.9498683277,-7.76588368088
-8.77211708593,-6.62131703786,-10.2798368259,-5.18845830091
-8.98246111633,-5.2236319756,-6.05980532412,-4.69103292095
-7.97280514672,-3.05594691334,-2.75977382233,-3.49360754098
-5.69314917712,-3.21826185108,-2.35974232054,-3.57618216101
-10.0134932075,1.68942321118,-2.31971081876,-3.22875678105
-6.97383723792,-4.40289172656,-8.62967931697,-7.33133140107
-10.2641812683,-3.7152066643,-3.80964781519,-6.38390602111
-10.0445252987,13.692478398,3.2003836866,-0.856480641141
-7.89486932911,-12.4198365398,-8.04958481162,-10.8790552612
-3.07521335951,-7.20215147752,-6.63955330983,-8.15162988121
-1.8255573899,-4.74446641526,0.350478191953,-7.31420450124
-4.2659014203,-3.296781353,1.57050969374,-4.70677912127
-5.3362454507,0.780903709254,4.85054119552,-2.4893537413
-0.776589481096,-3.36141122848,1.74057269731,-6.48192836134
-2.25693351149,-14.5637261662,-1.7093958009,-6.36450298137
2.43272245811,2.07395889603,7.02063570088,4.3129223986
2.27237842771,-7.37835604171,3.73066720267,1.53034777856
-0.0279656026869,-3.57067097945,7.32069870445,3.90777315853
3.27169036692,6.95701408281,11.9707302062,4.9651985385
4.26134633652,18.0146991451,14.470761708,14.8526239185
7.23100230612,-7.20761579267,5.47079320981,4.92984327138e-05
10.7806582757,17.2400692696,12.1508247116,8.4574746784
7.98031424533,14.2777543319,16.5308562134,11.7049000584
4.37997021493,-9.28456060589,9.39088771516,0.562325438332
1.69962618453,-1.00687554363,13.680919217,-3.1602491817
2.45928215414,8.53080951863,19.1509507187,2.34717619827
0.638938123737,4.43849458089,12.4309822205,-5.71539842177
0.368594093339,-13.6338203569,12.0010137223,-3.0479730418
3.63825006294,9.05386470541,19.1710452241,12.6994523382
0.767906032544,-6.15845023233,15.9510767259,3.43687771813
-0.122437997852,-3.06076517007,18.7611082277,3.1543030981
-3.68278202825,1.60691989219,21.8211397294,0.051728478069
-4.49312605865,2.22460495445,25.3411712312,3.00915385804
-6.88347008905,23.8322900167,28.781202733,5.856579238
-11.1538141194,-15.330024921,19.4112342348,-7.96599538203
-13.0341581498,-21.8923398588,14.8912657366,-11.0385700021
-10.9345021802,-0.884654796515,24.0212972384,-3.59114462209
-26.7786664244,-20.05484375,-4.81459665698,-19.9191860465
-27.5810016481,-33.1666683071,-6.52505945569,-26.1377926147
-24.6133368717,-27.9984928642,-4.8755222544,-25.0163991829
-31.0356720953,-38.0903174213,-9.54598505311,-31.405005751
-31.3480073189,-29.9421419783,-6.86644785182,-37.0136123192
-28.4203425426,-16.9739665354,-3.69691065053,-23.9322188873
-24.7426777662,-22.3457910925,-4.37737344924,-23.7508254555
-21.3450129898,-17.9076156496,-0.737836247945,-19.2994320237
-19.3173482135,-9.36944020669,-0.228299046654,-15.4080385918
-18.5796834371,-17.5112647638,-3.73876184536,-22.69664516
-18.6520186607,-22.0830893209,-3.26922464407,-20.2052517282
-14.7443538844,-3.19491387795,3.07031255722,-11.1338582963
-11.146689108,-8.56673843504,1.61984975851,-14.3024648645
-8.73902433162,-11.6685629921,2.7693869598,-3.33107143267
-9.52135955526,5.37961245079,-4.74107583891,-7.29967800083
-9.79369477889,1.11778789371,1.71846136238,-8.578284569
-9.01603000252,-9.17403666338,0.797998563674,-12.2168911372
-9.30836522615,-20.9258612205,-3.99246423503,-11.0554977053
-6.74070044978,-8.39768577756,2.93707296626,-3.73410427349
3.04696432659,0.890489665358,4.29661016755,3.19728915834
3.93462910296,7.88866510827,2.99614736884,5.24868259018
5.49229387933,3.45684055118,3.07568457013,8.43007602201
0.839958655693,9.2750159941,9.26522177142,9.05146945385
-1.48237656794,27.033191437,12.9247589727,14.5828628857
-2.24471179157,-4.76863312007,2.264296174,-5.60574368248
-0.447047015199,11.6295423228,3.33383337529,6.11564974935
8.76061776117,5.44771776575,2.96337057659,10.1570431812
2.78828253754,2.97589320866,3.56290777788,3.81843661302
2.96594731391,11.2740686516,6.35244497917,5.78983004486
1.95361209027,3.03224409449,8.43198218046,4.33122347669
3.00127686664,-6.27958046259,1.81151938175,-1.33738309147
3.93894164301,-18.4214050197,-5.81894341696,-9.00598965964
5.49660641938,-4.96322957677,-0.0494062156686,-1.4645962278
3.84427119575,2.80494586614,0.530130985624,-1.13320279597
3.73193597212,8.87312130906,2.55966818691,2.62819063587
-1.93039925151,-4.83870324803,0.379205388206,-5.1704159323
-1.71273447514,-3.45052780511,0.558742589496,-7.57902250046
2.46493030122,-2.4723523622,-0.651720209213,-0.937629068627
9.86259507759,-12.8141769193,-3.81218300792,-3.12623563679
15.890259854,-8.29600147637,-4.30264580663,2.26515779504
8.37792463033,4.95217396654,-5.45310860534,4.07655122688
8.1555894067,-5.92965059055,-10.413571404,-1.58205534129
12.8232541831,-0.551475147635,-3.98403420276,6.17933809055
4.90091895944,21.4467002953,6.27550299853,9.04073152238
5.63858373581,5.85487573819,-1.37495980018,8.48212495422
7.30624851218,-3.1169488189,-3.83542259888,0.243518386051
12.6039132885,0.581226624017,-2.78588539759,4.71491181789
11.7315780649,24.2794020669,10.3036518037,14.7063052497
11.4092428413,14.0575775098,2.79318900499,17.0976986816
13.1969076177,16.9457529528,3.70272620628,15.4490921134
11.564572394,2.13392839567,-0.387736592429,9.62048554523
8.76223717039,15.0621038386,1.95180060886,15.0118789771
8.42990194676,10.0702792815,1.54133781015,11.2532724089
13.4475667231,0.888454724411,-2.45912498855,4.33466584073
20.2852314995,9.61663016732,-3.62958778726,15.6660592726
14.5628962759,25.6048056102,5.86994941403,24.9474527044
15.0705610522,13.2129810532,5.95948661532,16.1588461362
21.2582258286,28.5811564961,5.54902381661,25.9502395681
29.795890605,17.629331939,8.3585610179,26.4016329999
26.3735553813,25.7775073819,11.9980982192,29.2630264317
10.7212201577,9.58568282481,-4.65236457952,8.75441986358
6.01888493408,7.78385826772,-5.02282737823,7.27581329541
3.85654971044,23.0820337106,2.97670982306,9.33720672725
4.78421448681,-10.0097908465,-12.6037529756,0.708600159083
11.2618792632,6.71838459646,-6.66421577435,7.66999359092
7.43954403955,9.42656003937,-2.24467857306,9.95138702275
7.79720881592,12.1647354823,2.58485862823,9.52278045459
13.9848735923,12.4229109252,-5.86560417048,12.5241738864
6.67253836866,-6.85891363189,-8.17606696919,4.97556731826
8.39020314503,15.749261811,-0.866529767898,14.4969607501
9.49786792139,1.69743725394,-4.76699256661,4.81835418193
11.4455326978,11.2756126969,-3.53745536532,9.55974761376
8.95319747413,14.3037881398,-3.56791816402,12.3311410456
11.1208622505,7.13196358268,-2.51838096273,12.5625344774
9.43852702687,18.7201390256,5.84115623856,10.6439279093
13.1061918032,8.04831446851,-0.449306560153,9.9253213411
12.7638565796,15.0064899114,-0.69976935886,14.6967147729
13.951521356,12.1546653543,-1.95023215757,15.0281082048
12.9791861323,6.17284079724,-0.750694956279,16.8195016366
7.58685090871,17.7410162402,5.54884224501,17.3808950684
17.2845156851,21.8391916831,-2.5716205537,24.2922885003
19.2021804615,18.277367126,-2.03208335241,28.8136819321
13.0298452378,12.0255425689,3.45745384889,15.9850753639
11.7775100142,19.9437180118,5.59699105018,9.43646879578
11.4651747906,19.3518934547,5.81652825147,16.4378622276
14.8328395669,1.50006889764,-1.11393454724,6.66925565945
12.1905043433,25.0482443406,8.62560265405,15.0506490913
12.1481691197,6.21641978346,0.13513985534,6.09204252312
10.535833896,1.75459522638,-4.83532294337,1.00343595496
9.7934986724,5.25277066929,0.814214257924,9.65482938679
6.14116344877,15.1409461122,3.22375145922,7.26622281863
5.53882822514,15.6591215551,0.313288660507,6.63761625046
5.68649300151,10.057296998,2.1928258618,11.7390096823
4.39415777788,17.8454724409,5.45236306309,14.3104031141
5.17182255424,11.8436478839,4.62190026438,4.90179654597
7.01948733061,12.4818233268,-0.47856253433,7.3831899778
4.86715210698,-3.18000123032,-1.04902533304,7.00458340964
7.63481688335,-10.9718257874,-6.09948813175,1.42597684147
4.21248165972,17.6063496555,5.23004906954,4.26737027331
5.42014643609,-2.94547490158,-1.79041372917,-1.32123629486
2.59781121246,6.71270054134,5.30912347213,5.32015713698
-1.09452401117,9.29087598425,7.75866067342,1.61155056881
3.33314076519,19.3390514272,3.59819787471,8.27294400065
-0.179194458437,-14.2927731299,-3.892264924,-3.72566256752
0.258470317933,-17.184597687,-2.21272772271,-10.0942691357
-0.193864905699,1.5135777559,4.12680947858,1.15712429615
-3.74620012933,2.99175319882,3.51634667987,4.59851772799
-6.94853535296,-8.91007135827,1.01588388116,-5.06008884018
-8.83087057659,2.80810408464,1.45542108245,-7.66869540834
-13.7032058002,-0.373720472442,4.26495828374,-14.6873019765
-10.4655410239,-23.6555450295,-7.38550451496,-12.4259085447
-5.66787624749,-14.8573695866,-9.55596731367,-15.5245151128
-10.5902114711,3.6508058563,2.75356988762,-10.273121681
-13.4525466948,-6.28101870079,5.57310708891,-4.19172824917
-19.9348819184,-21.6528432579,-5.1373557098,-18.1803348173
-13.567217142,-21.304667815,-3.53781850851,-19.0989413855
-13.6595523656,-3.99649237205,4.22171869278,-10.5775479537
-19.8818875893,-16.9283169291,3.30125589407,-17.8861545218
-18.6942228129,-18.7301414862,-1.26920690464,-15.50476109
-19.5465580365,-22.4519660433,-8.46966970335,-22.1233676582
-19.2188932602,-5.16379060039,-0.510132502053,-21.5419742263
-16.6112284838,-36.3556151575,-2.73059530076,-26.3005807945
-19.2735637074,-25.2674397146,-3.85105809947,-24.7991873627
-18.8958989311,-26.8892642717,-5.85152089818,-17.5077939308
-26.0482341547,-37.0210888287,-6.92198369689,-30.496400499
-26.5005693783,-13.2329133858,-1.2724464956,-20.4350070671
-33.272904602,-28.8947379429,1.31709070569,-29.3036136353
-30.7952398256,-34.4265625,0.106627906986,-30.4222202035
-27.7336882267,-7.56740552325,10.354193314,-23.6173146802
-22.5222214338,-16.4076493831,3.30248234641,-27.7401633172
-23.0507546409,-6.79789324299,5.16077137887,-22.6630119541
-23.8892878479,-8.39813710286,5.31906041132,-23.925860591
-15.117821055,10.7016190373,7.98734944378,-13.6787092279
-15.266354262,-24.4486248226,3.57563847624,-22.7715578649
-13.5148874691,5.09113131753,6.7339275087,-8.0744065018
-6.98342067615,4.38088745766,5.32221654116,-11.3272551387
-12.4119538832,4.76064359779,8.93050557361,-13.9801037756
-9.94048709027,2.76039973792,5.64879460607,-5.00295241257
-8.87902029733,4.85015587805,5.50708363853,-9.0158010495
-12.8975535044,16.8099120182,6.93537267099,1.20135031357
-13.5360867114,1.80966815831,2.36366170344,-0.481498323348
-9.03461991851,-5.76057570156,-1.5380492641,-9.55434696027
-7.44315312557,-6.15081956143,3.92023976836,-6.7671955972
-1.35168633263,20.5089365787,5.10852880081,1.01995576588
-3.49021953969,11.6186927188,-0.833182166729,1.98710712895
0.141247253256,3.06844885896,6.42510686573,-3.03574150797
4.0127140462,17.3682049991,4.39339589819,6.2314098551
-2.37581916086,8.61796113922,2.54168493064,5.04856121818
-5.27435236792,5.31771727935,7.1099739631,-1.68428741875
3.81711442502,5.39747341948,1.39826299556,-1.87713605567
1.76858121796,-2.77277044039,4.57655202802,0.920015307398
1.3500480109,-5.75301430026,0.984841060475,2.80716667047
5.27151480384,3.41674183987,0.943130092932,5.54431803355
7.17298159678,-0.303502020004,-1.88858087461,3.12146939662
7.20444838972,16.9862541201,3.25970815785,16.3186207597
3.83591518266,-5.84398973974,5.43799719031,0.0557721227706
3.7373819756,-1.58423359961,-2.65371377724,0.502923485845
1.28884876854,14.6555225405,0.264575255218,15.4000748489
4.15031556149,1.38527868065,-2.00713571232,2.82722621199
4.11178235443,5.55503482078,-5.62884667987,1.60437757507
0.903249147368,-12.6052090391,-7.34055764741,0.591528938148
7.84471594031,-16.435452899,-8.27226861495,2.00868030122
5.99618273325,8.83430324117,-0.283979582493,7.8058316643
4.95764952619,5.2240593813,-6.51569055004,1.28298302737
8.13911631913,9.64381552143,-4.31740151758,9.77013439044
12.9505831121,-5.12642833844,-9.89911248512,5.36728575352
11.882049905,18.3533278017,-2.87082345266,19.9344371166
14.773516698,18.4630839418,-0.612534420205,26.8915884797
6.98498349089,16.2528400819,-3.62424538775,17.8287398427
10.2064502838,-7.19740377792,-13.5659563553,6.83589120582
8.60791707678,1.26235236221,-4.97766732284,7.74304256889
5.86938386972,-19.3778914977,-6.45937829038,-4.76980606803
16.9208506627,-7.89813535753,-10.4610892579,3.66734529504
15.3423174556,7.55162078259,-5.64280022546,11.8844966581
17.4737842485,-6.40862307727,-6.60451119301,6.88164802119
13.3652510415,6.75113306285,-2.43622216055,14.8987993843
9.12671783442,-4.94911079701,-9.58793312809,0.735950747341
10.3381846274,-14.9293546569,-9.77964409563,9.45310211042
9.9496514203,11.3904014832,-2.01135506317,3.90025347349
11.6111182132,-9.13984237662,-3.84306603071,6.21740483657
14.1225850062,-1.19008623649,-3.29477699826,12.6845561996
11.0640517991,3.37966990364,4.7535120342,11.0817075627
14.9455185921,13.8894260438,1.03180106666,11.8088589258
10.326985385,-3.13081781611,1.50009009911,5.84601028886
14.7084521779,30.328938324,10.4783791316,16.7231616519
9.01991897089,8.00869446416,2.67666816403,13.110313015
7.48138576383,-29.8215493957,-11.4850428035,-9.57253562192
5.17285255677,-7.10179325558,-0.456753771055,1.23461574116
4.57431934971,1.98796288455,-6.1084647386,2.40176710423
1.89578614265,-12.8222809753,-4.69017570614,-0.18108153269
5.43725293559,-21.7325248352,-7.95188667369,-6.25393016962
10.1887197285,-4.80276869507,-0.433597641226,9.74322119346
11.9401865215,24.7369874451,0.424691391232,13.4103725565
8.68165331441,-30.4632564148,-9.40701957631,-12.2324760804
3.84312010735,-14.9135002747,-9.81873054386,-4.15532471731
6.1945869003,16.9962558655,-1.6404415114,17.0218266458
4.72605369324,-18.6839879944,-5.03215247894,-3.60102199117
2.25752048618,-30.6342318543,-14.0238634465,-7.77387062809
3.46898727912,-21.1644757142,-5.17557441402,-5.57671926502
0.620454072057,-5.64471957403,-2.79728538157,2.59043209806
2.431920865,-1.3649634339,-3.29899634911,4.90758346113
4.94338765794,0.144792706235,-1.35070731665,1.58473482421
4.17485445088,8.67454884636,5.6475817158,4.34188618728
4.06632124382,-20.5956950135,-8.80412925174,-12.1009624496
1.79778803676,-6.34593887338,-2.33584021928,5.76618891343
4.2192548297,-6.82618273325,-6.37755118682,6.0433402765
1.03072162264,-9.29642659312,-1.58926215436,2.14049163958
1.57218841558,-9.50667045299,0.299026878092,8.18764300266
-4.33634479147,-10.6769143129,-8.50268408945,-12.3052056343
-3.52487799853,1.37284182727,2.25560494301,4.65194572881
-5.26341120559,11.1125979674,1.43389397547,9.59909709188
-6.57194441265,-8.27764589247,-2.40781699208,-3.40375154504
1.87952238029,20.6621102477,6.88047204038,8.52339981803
-7.06901082677,-12.7881336122,-3.84123892716,-8.80944881889
-7.41754403383,-17.5383774721,-6.47294989471,-4.58229745582
-2.80607724089,32.8913786681,10.1853391378,7.14485390726
-4.03461044795,12.5011348082,2.88362817021,6.19200527033
-6.50314365501,-11.4491090517,-0.0180827973327,1.0091566334
-3.88167686207,-11.6593529116,3.79020623513,2.38630799648
1.95978993087,4.06040322857,5.22849526758,12.4034593596
-1.46874327618,-10.8998406313,2.77678430004,-4.65938927737
-7.05727648324,5.48991550883,1.6350733325,1.6077620857
-6.4158096903,5.41967164896,8.12336236496,1.72491344878
-5.45434289736,-6.95057221091,4.62165139741,-7.24793518815
-3.18287610442,-0.530816070777,-4.69005957013,-9.65078382507
2.25859068852,-2.68105993065,0.568229462328,1.016367538
-4.79994251854,-7.68130379052,-0.833481505215,-4.56648109892
-10.9184757256,5.49845234961,1.61480752724,-5.95932973585
-7.19700893266,-9.58179151026,2.4230965597,-6.24217837277
-7.94554213972,-0.712035370127,1.42138559216,-3.4650270097
-10.7140753468,-4.50227923,2.99967462461,-9.12787564662
-10.9326085538,-5.03252308987,3.42796365707,-11.3807242836
-6.3811417609,22.8972330503,7.14625268953,10.9564270795
-6.61967496795,-2.79301080961,2.09454172199,-0.296421557403
-2.65820817501,-8.41325466948,4.40283075444,2.42072980567
-0.906741382074,-13.6734985293,-0.998880213097,-4.05211883125
-2.95527458913,5.95625761078,-2.31059118064,-5.09496746818
-1.33380779619,19.0060137509,0.647697851819,3.56218389489
-8.23234100325,26.675769891,10.6459868843,3.43933525797
-5.92087421031,9.95552603117,7.34427591673,-2.65351337895
-4.79940741737,-9.9947178287,1.18256494919,-13.3963620159
-4.09794062443,-3.12496168857,-5.89914601835,-10.9292106528
-3.06647383149,2.78479445156,1.9791430141,-5.53205928973
-0.685007038546,18.0845505917,6.00743204656,6.99509207335
-6.55354024561,2.40430673182,3.80572107902,3.40224343642
-9.88207345267,-4.61593712805,3.42401011148,-9.1906052005
-1.53060665972,9.47381901208,11.7922991439,-5.45345383743
2.25086013322,2.08357515221,-0.719411823608,-0.956302474355
-0.667673073844,-9.14666870766,-3.84112279115,-11.2891511113
5.1337937191,34.5230874325,13.5371662413,4.5880002518
-1.76473948796,-3.5071564274,1.40545527377,-6.40484838513
-5.62327269502,-7.76740028727,-3.66625569378,-13.3676970221
-2.26180590208,-1.13764414714,-2.46796666132,-9.65054565898
3.54966089086,10.542111993,2.14032237114,-3.04339429591
-3.2088723162,11.5318681331,1.8586114036,3.51375706717
-1.68740552326,-14.8283757267,-5.60309956395,-9.92909156976
0.915873015872,5.38544973545,-0.646957671963,3.91272486771
1.72311355311,4.09497354498,3.45594220594,2.55949531948
0.0503540903537,-17.9055026455,-6.67115791616,-9.57373422874
-2.22240537241,-3.18597883598,-2.48825803826,-4.51696377697
1.40483516484,-8.04645502646,-0.805358160362,-1.2501933252
1.67207570208,3.01306878307,3.80754171754,6.42657712657
3.37931623932,15.1825925926,-2.46955840456,-1.01665242166
2.03655677656,11.3521164021,2.91334147334,5.12011803011
0.0837973137968,-16.3883597884,-0.903758648761,-3.41311151812
0.0210378510383,-8.88883597883,3.36914122914,-2.62634106635
0.0682783882803,20.6506878307,5.37204110704,5.94042938542
-5.13448107448,-5.93978835979,-0.865059015063,-5.74280016281
-4.86724053724,10.8197354497,3.91784086284,8.25397028896
-1.24,17.7592592593,0.280740740736,10.9807407407
-4.36275946276,9.54878306878,3.64364061864,-0.432488807499
0.714481074483,-8.87169312169,-0.553459503462,-2.10571835573
-3.02827838828,-15.6121693122,-2.88055962556,-7.74894790396
-0.411037851036,-11.6426455026,-5.15765974766,-5.46217745218
5.7162026862,-14.9831216931,-3.69475986976,1.29459299959
-1.71655677656,2.1764021164,-4.23185999186,-2.79863654864
-0.819316239315,-3.19407407407,-1.94896011396,-4.40186609687
1.01792429793,3.92544973545,1.90393976394,-3.2750956451
2.85516483517,2.70497354497,0.186839641836,2.94167480667
-0.0475946275928,11.1944973545,3.20973951974,8.08844525844
1.07964590965,-9.26597883598,-1.79736060236,-2.47478428979
0.186886446889,-0.336455026454,-0.764460724464,-1.64801383802
