-3.18683139534,0.183212209318,-2.46578125001,-4.70341569768
-0.333383509194,0.740389723742,-1.0952706693,-0.527687694564
0.950064376953,-4.17243276184,-1.33476008859,-1.64195969145
-2.2364877369,-3.88525524742,-0.324249507885,-1.10623168834
-5.80303985075,2.141922267,-0.053738927174,1.48949631478
-2.3995919646,3.17909978142,-0.943228346463,2.89522431789
-1.04614407846,2.76627729584,-0.0627177657589,-0.569047678999
1.50730380769,-0.0565451897382,-1.15220718505,-0.263319675886
0.540751693832,-2.54936767532,-0.271696604337,0.832408327227
1.46419957998,2.5678098391,-0.761186023628,2.50813633034
2.83764746613,4.70498735352,-2.05067544292,4.85386433345
3.90109535227,6.93216486794,-3.14016486221,6.64959233657
0.0445432384222,1.30934238236,-2.2596542815,2.44532033968
-1.71200887543,0.426519896784,-2.20914370079,2.42104834279
1.27143901072,2.8536974112,-2.38863312009,5.48677634591
-2.25511310314,4.03087492562,-2.17812253938,3.00250434902
0.748334783009,4.09805244004,-1.92761195867,3.17823235213
-0.73821733084,0.395229954462,-3.12710137796,1.48396035524
-5.71476944469,-1.73759253112,-3.79659079725,-0.620311641643
-0.801321558549,4.6495849833,-1.92608021654,4.34541636147
3.9021263276,9.01676249772,-0.695569635835,6.13114436458
5.76557421375,9.41394001214,2.92494094487,6.2168723677
10.5390220999,8.58111752656,6.46545152558,13.3526003708
16.132469986,2.28829504098,0.57596210629,14.3583283739
9.95591787219,-1.25452744459,-3.153527313,4.34405637704
6.82936575833,4.12265006982,-0.493016732289,6.57978438015
4.76281364448,4.53982758425,3.93749384842,6.77551238326
0.796261530628,1.73700509866,2.51800442913,5.73124038637
1.22970941678,-2.76581738691,1.96851500984,-2.49303161051
1.39315730292,-0.468639872495,1.83902559055,-3.6773036074
3.68660518907,3.49853764192,1.99953617125,1.05842439571
1.68005307522,-0.554284843653,1.67004675196,-2.22584760117
2.38350096136,-0.427107329233,0.98055733267,-3.97011959806
-0.353051152488,-2.68992981481,0.411067913381,-2.07439159495
3.43039673366,1.18724769961,0.811578494086,-1.44866359183
3.55384461981,4.12442521403,1.8520890748,-2.88293558872
-0.722707494049,6.31160272844,2.75259965551,-0.107207585608
1.0907403921,1.44878024287,2.22311023622,-1.1814795825
1.55418827825,-0.524042242712,1.44362081692,-0.175751579382
1.73763616439,3.40313527171,2.72413139763,1.81997642373
7.98108405054,6.32031278613,0.714641978342,2.28570442684
6.65453193669,3.42749030055,0.765152559052,1.86143242996
4.49797982283,-4.29533218503,1.15566313976,-1.54283956693
10.741427709,-3.13815467061,0.866173720467,-0.887111563818
15.4048755951,4.15902284381,2.48668430118,4.9386164393
12.1083234813,5.85620035823,1.90719488189,8.54434444241
15.1517713674,5.24337787265,1.39770546259,7.49007244552
12.9952192536,1.41055538707,0.908216043303,3.86580044863
8.82866713972,-0.212267098508,-0.441273375989,3.96152845175
4.50211502587,2.82491041591,-0.66076279528,5.09725645486
8.48556291201,8.20208793033,0.709747785426,5.88298445797
8.02901079816,3.29926544475,0.710258366136,1.36871246109
1.2224586843,0.676442959175,2.04076894684,-0.535559535801
2.37590657045,2.65362047359,2.89127952756,2.13016846731
4.4393544566,6.02079798801,2.92179010827,3.62589647042
4.56280234275,9.78797550243,3.95230068897,6.06162447354
3.8962502289,6.89515301685,3.06281126968,4.55735247665
-3.96030188496,1.03233053127,5.15332185039,0.363080479764
-3.16685399881,2.42950804569,5.1338324311,0.408808482877
-1.81340611267,2.62668556011,3.12434301181,0.18453648599
-3.50995822652,0.583863074535,1.07485359252,-2.3497355109
-2.73651034037,-4.56895941104,-0.974635826773,-5.31400750778
-9.09306245422,-10.3417818966,-2.08412524606,-7.95827950467
-16.7696145681,-9.10460438221,-1.40361466536,-10.0825515016
-11.9861666819,-7.81742686778,-0.463104084647,-9.02682349844
-6.74271879578,-3.86024935337,-0.772593503938,-6.37109549533
-9.31927090963,-1.19307183894,0.46791707677,-3.32536749222
-9.13582302349,-1.93589432452,1.60842765748,-4.44963948911
-8.88237513734,-5.6787168101,0.228938238186,-5.58391148599
-14.6789272512,-5.91153929568,-0.840551181103,-5.71818348288
-15.695479365,-6.59436178126,-1.97004060039,-8.54245547977
-15.0220314789,-6.37718426684,-0.269530019686,-6.81672747665
-12.9485835928,-9.31000675242,-0.689019438978,-5.90099947354
-7.6651357066,-8.672829238,-2.15850885827,-5.61527147043
-5.27168782046,-4.99565172358,-2.14799827756,-2.78954346731
-4.78823993431,-1.44847420916,-1.69748769685,-1.0938154642
-7.59479204816,-6.98129669474,-3.99697711614,-5.40808746109
-10.021344162,-14.7841191803,-4.36646653543,-10.792359458
-17.0778962759,-13.1669416659,-2.99595595472,-13.0966314549
-14.5544483897,-8.22976415148,-1.67544537402,-9.10090345175
-9.21100050358,-5.78258663706,0.47506520669,-7.44517544864
-9.55755261743,-3.51540912264,0.355575787402,-6.70944744552
-12.9241047313,-6.38823160822,1.00608636811,-8.16371944241
-14.4306568451,-6.9110540938,1.36659694882,-9.5679914393
-11.467208959,-1.77387657938,2.69710752953,-4.60226343619
-11.1737610728,0.113300935038,2.80761811024,-3.50653543307
-12.1203131867,-5.83952155054,1.58812869095,-7.24080742996
-12.4468653005,-10.4723440361,0.118639271652,-9.94507942685
-10.3534174144,-11.0151665217,-0.320850147637,-8.08935142373
-4.17996952825,-8.83798900728,-0.520339566927,-7.35362342062
-2.37652164211,-6.34081149286,-2.27982898622,-6.83789541751
-5.32307375596,-8.94363397844,-2.69931840551,-6.08216741439
-3.07962586981,-14.266456464,-2.6488078248,-9.16643941128
-0.536177983664,-15.9592789496,-3.17829724409,-12.5007114082
-1.02273009752,-9.26210143518,-1.64778666338,-7.66498340505
-3.19928221137,-5.66492392076,-2.09727608268,-6.88925540194
-3.50583432522,-15.6677464063,-4.76676550197,-12.7035273988
-9.28238643908,-20.1005688919,-3.89625492126,-16.5477993957
-8.24893855293,-17.8333913775,-3.86574434055,-16.9220713926
-5.66549066678,-12.7662138631,-3.99523375984,-14.8863433895
-5.68204278063,-9.55903634866,-2.91472317913,-9.84061538638
-8.45859489449,-7.57185883424,-2.19421259842,-10.2648873833
-1.67514700834,-7.96468131982,-1.78370201771,-9.25915938015
-0.731699122192,-6.9475038054,-1.603191437,-6.10343137704
-1.03825123604,-3.44032629098,-2.9626808563,-1.81770337392
2.1251966501,-2.85314877656,-2.53217027559,0.218024629188
2.62864453625,2.44402873786,-0.55165969488,4.4637526323
3.28209242239,-3.84879374772,-3.68114911417,3.47948063541
6.35554030854,-3.1216162333,-2.80063853346,2.49520863853
3.41898819469,1.22556128112,-1.74012795275,1.18093664164
7.74243608084,4.93273879555,-2.78961737204,3.52666464475
6.54588396698,7.46991630996,-1.21910679133,5.94239264787
0.989331853132,3.65709382439,-0.158596210629,3.50812065098
4.08277973928,6.1342713388,0.62191437008,7.48384865409
5.79622762543,8.40144885322,1.10242495079,8.6395766572
4.81967551157,13.6286263676,3.2329355315,11.1953046603
5.43312339772,14.8658038821,4.60344611221,9.94103266343
7.60657128387,10.8129813965,3.48395669292,10.9667606665
10.28001917,11.1601589109,4.03446727363,13.0224886697
9.50346705616,13.6573364253,4.19497785433,15.3482166728
13.9169149423,16.8045139397,4.24548843504,17.6239446759
13.8203628285,17.2616914542,3.82599901575,18.339672679
15.9538107146,15.3488689686,2.39650959646,17.8754006821
12.2972586007,14.586046483,2.71702017717,13.6911286852
14.3607064869,21.7032239974,2.83753075788,15.2168566883
10.124154373,13.5204015118,-0.531958661413,10.4325846914
10.4076022592,12.2575790263,-0.101448080703,9.28831269456
10.3710501453,8.26475654069,-1.19093749999,7.61404069767
13.1841751454,4.13092296512,-0.259207848838,14.8300872093
16.0422491588,7.17302211134,1.03112047358,13.6828540446
19.2903231723,11.0151212576,2.52144879601,16.7856208799
13.4683971857,11.4172204038,4.43177711843,17.0883877152
11.0764711992,10.36931955,4.43210544085,13.7811545504
9.81454521266,10.4614186962,4.42243376327,13.6139213857
7.95261922612,6.35351784243,3.8727620857,9.09668822102
6.82069323958,10.5556169887,4.89309040812,12.7194550563
6.02876725304,8.04771613487,3.65341873054,9.73222189159
7.2968412665,2.37981528109,1.52374705297,5.12498872688
9.32491527996,3.22191442731,1.11407537539,6.66775556217
14.6029892934,10.8040135735,0.864403697811,10.3305223975
14.3810633069,15.7461127197,1.32473202024,11.6632892327
12.1091373203,11.008211866,0.195060342656,9.93605606803
13.1272113338,10.0303110122,0.485388665078,8.98882290331
15.3552853473,9.6024101584,0.00571698750355,7.1815897386
12.9333593607,5.20450930462,-1.41395469008,6.88435657389
16.1214333742,5.69660845084,-2.51362636765,9.64712340917
14.0795073876,-0.0912924029435,-3.41329804523,5.88989024446
12.4975814011,-1.47919325672,-2.3729697228,3.56265707975
10.1956554145,-1.78709411051,-1.75264140038,5.58542391503
8.503729428,1.20500503571,0.087686922041,6.25819075032
7.27180344146,7.22710418193,2.47801524446,10.6109575856
5.64987745492,9.18920332815,3.80834356689,7.16372442089
6.15795146838,10.1713024744,6.18867188931,8.71649125618
7.44602548184,6.13340162058,5.95900021173,12.2492580915
4.0140994953,1.50550076681,2.52932853415,0.532024926752
-5.24782649125,2.69759991302,0.449656856574,-1.48520823796
-8.31975247779,0.0396990592417,-0.840014821002,-2.61244140267
-9.33167846433,-0.0482017945396,0.54031350142,-5.78967456739
-9.83360445087,-1.92610264832,-0.879358176157,-4.3669077321
-9.26553043741,-1.6140035021,-1.72902985374,-3.78414089681
-8.26745642395,-3.49190435588,-1.24870153131,-7.70137406153
-12.3693824105,-4.20980520967,-0.718373208889,-8.46860722624
-11.011308397,-8.38770606345,-1.95804488647,-7.91584039096
-11.7832343836,-14.7956069172,-2.16771656404,-12.5930735557
-14.0651603701,-8.44350777101,-2.39738824162,-12.0103067204
-8.97708635666,-2.21140862479,-1.1570599192,-7.8875398851
-6.5290123432,0.230690521428,-1.51673159677,-6.97477304981
-7.08093832974,-8.23721033235,-3.96640327435,-11.0920062145
-10.7128643163,-9.78511118613,-3.68607495193,-12.0792393792
-15.9947903028,-10.7430120399,-3.68574662951,-15.9264725439
-16.5367162894,-10.2009128937,-3.58541830708,-14.7937057087
-17.4586422759,-17.9788137475,-3.36508998466,-17.7909388734
-22.9005682624,-17.9367146013,-3.55476166224,-18.8281720381
-22.062494249,-15.314615455,-3.69443333981,-19.5054052028
-20.8244202355,-12.3225163088,-2.41410501739,-18.5226383675
-17.3863462221,-10.2604171626,-2.59377669497,-16.9398715322
-18.1782722086,-12.4083180164,-2.47344837255,-18.7071046969
-18.0101981951,-9.02621887017,-1.04312005013,-18.8543378617
-17.8421241817,-11.7341197239,-0.492791727702,-18.2315710264
-19.1840501682,-8.20202057773,0.18753659472,-13.4288041911
-16.1159761548,-6.31992143151,0.157864917142,-11.5360373558
-10.4479021413,-9.26782228529,-1.73180676044,-14.0232705205
-5.17982812785,-12.1557231391,-2.67147843801,-14.6305036852
-1.7717541144,-11.5936239929,-2.48115011559,-12.1977368499
0.636319899062,-0.0815248466351,1.88917820683,-0.26497001465
0.0243939125212,7.03057429958,6.48950652925,5.47779682064
-9.30753207402,-3.9673265542,2.05983485168,-8.49943634408
-15.9294580606,-9.17522740798,-1.4798368259,-7.05666950879
-19.2013840471,-6.22312826176,-0.199508503476,-7.7239026735
-13.5533100336,-5.59102911554,-1.69918018105,-8.49113583822
-8.49523602018,-7.37892996932,-2.41885185863,-9.47836900293
-7.53716200673,-7.3368308231,-2.24852353621,-7.58560216764
-8.21908799326,-10.5247316769,-3.37819521378,-12.1228353324
-11.2510139798,-10.8126325307,-1.81786689136,-7.66006849707
-7.45293996635,-7.87053338445,-0.237538568941,-4.26730166178
-0.134865952889,-0.198434238231,-0.157210246518,0.235465173502
-1.21679193943,1.25366490799,-0.976881924096,-0.121767991211
0.271282074027,-3.47423594579,-2.03655360167,-7.85900115592
-2.17064391252,-3.63213679957,-0.516225279251,-6.97623432064
-1.57256989905,-2.27003765336,-0.485896956823,-4.76346748535
-2.5644958856,-2.31793850714,-0.625568634401,-1.97070065006
-0.226421872139,1.04416063908,-0.455240311978,1.35206618522
0.971652141321,-0.993740214704,-0.594911989556,-0.355166979492
0.689726154782,0.598358931515,-0.404583667136,2.79759985579
5.84780016824,3.17045807773,0.415744655289,4.67036669108
7.1558741817,4.40255722395,-0.0339270222903,3.65313352637
4.75394819516,4.13465637017,-2.15359869987,0.615900361655
-0.107977791384,-7.31324448361,-3.16327037744,-1.25133280306
-3.12990377792,-9.34114533739,-4.40294205502,-3.88856596777
-1.84182976446,-8.15904619117,-4.2026137326,-4.74579913249
1.52624424899,-4.01694704495,-2.98228541018,-0.0330322971986
1.73431826245,1.28515210126,-3.37195708775,1.78973453809
-0.167607724088,-3.50274875252,-2.84162876533,-3.10749862663
-2.34953371063,-6.5806496063,-2.65130044291,-2.82473179134
-0.881459697172,-5.01855046008,-3.69097212048,-4.59196495605
-4.98338568371,0.323548686138,-0.97064379806,-2.66919812077
2.02468832974,-3.83435216764,-2.07031547564,-1.80643128548
3.1327623432,0.997746978577,0.270012846784,0.356335549807
2.27083635666,-1.10015387521,1.00034116921,4.19910238509
7.47891037012,0.981945271014,0.810669491628,8.91186922038
5.74698438358,6.72404441723,1.14099781405,9.52463605567
4.73505839704,5.78614356345,0.501326136473,7.33740289095
3.9431324105,1.51824270967,0.631654458895,4.69016972624
0.531206423955,3.53034185589,2.50198278132,5.13293656153
1.92928043742,6.53244100211,4.70231110374,5.32570339681
3.84735445087,15.6045401483,5.25263942617,10.9084702321
7.85542846434,17.2866392945,6.36296774859,17.7212370674
5.59350247779,14.6487384408,5.71329607101,13.1840039027
12.9615764913,11.090837587,5.27362439343,11.476770738
11.4496505047,10.8029367332,3.70395271586,9.23953757325
11.8277245182,4.88503587942,-0.345718961722,4.25230440853
12.1957985316,4.77713502564,0.00460936070158,4.22507124382
6.71387254509,3.74923417186,-0.185062316876,4.79783807911
4.71194655855,6.47133331808,0.995266005546,5.62060491439
5.170020572,4.8634324643,2.77559432797,7.78337174968
2.05809458546,11.1555316105,3.12592265039,9.54613858496
6.60616859893,6.67763075673,1.63625097281,6.47890542025
5.10424261238,4.22972990295,1.85657929524,6.74167225554
5.25231662584,5.79182904917,2.26690761766,7.80443909083
8.7503906393,7.58392819539,2.93723594008,7.71720592611
10.4784646528,-0.373972658395,0.157564262507,7.0399727614
5.95653866622,-3.39187351217,-0.462107415071,4.91273959669
7.06461267967,-3.94977436596,1.16822090735,2.75550643197
0.352686693135,-0.127675219737,0.108549229775,2.55827326726
3.56076070659,2.08442392648,0.298877552195,4.02104010254
0.978834720052,10.6465230727,2.23920587462,5.24380693783
-3.83309126649,0.998622218918,0.869534197042,2.06657377312
-4.93501725303,-5.92927863487,2.01986251946,-1.58065939159
-1.92694323957,-0.367179488647,1.43019084189,-0.30789255631
-0.308869226112,-3.60508034243,-0.879480835691,-2.45512572102
3.66920478735,-1.01298119621,-0.369152513271,1.01764111426
8.14727880081,1.13911795001,-1.18882419084,-0.0095920504491
4.96535281426,0.201217096226,-1.41849586842,-1.71682521516
2.34342682773,-1.62668375755,-3.438167546,-2.63405837988
0.501500841183,-0.594584611335,-1.89783922358,-2.86129154459
-2.28042514536,8.04751453488,0.462489098845,-1.1485247093
-8.93275799418,-0.773419331392,0.998219476736,-6.79393168605
-3.7694493053,-5.2146856116,2.31002532159,-4.57006563587
0.853859383584,-1.09595189182,2.83183116644,-1.4761995857
3.22716807247,0.23278182797,0.9636370113,0.857666464473
5.50047676135,2.78151554775,-0.0545571438452,4.74153251465
3.24378545024,6.21024926754,1.29724870101,5.26539856482
3.12709413912,0.288982987324,1.77905454587,5.429264615
2.71040282801,-0.952283292889,1.46086039072,4.85313066517
2.3937115169,1.8264504269,1.74266623557,4.66699671534
0.537020205778,3.21518414668,2.12447208043,3.60086276552
2.08032889466,3.71391786647,1.53627792528,2.42472881569
3.57363758355,1.73265158625,0.858083770134,2.88859486587
-0.543053727568,7.03138530604,3.09988961499,2.58246091604
0.0902549613165,3.57011902583,3.20169545984,0.466326966213
-3.3764363498,-3.73114725439,-0.476498695301,-2.98980698361
-4.03312766091,-5.53241353461,-1.40469285044,-4.78594093344
-9.09981897203,-9.88367981481,-2.68288700559,-6.05207488327
-9.50651028314,-15.984946095,-4.46108116073,-10.1082088331
-7.36320159426,-8.42621237525,-3.28927531588,-8.51434278292
-2.17989290538,-0.327478655461,-0.597469471028,-3.56047673274
2.16341578351,-5.41874493568,-1.07566362617,-0.826610682569
-0.793275527605,-4.00001121589,-0.573857781317,0.147255367605
-3.98996683872,0.268722503897,1.04794806354,0.441121417779
1.30334185017,4.54745622369,-0.190246091606,0.024987467953
-1.24334946095,3.14618994347,-2.39844024675,-1.73114648187
-2.05004077206,-2.16507633674,-1.8466344019,-2.8572804317
-1.57673208318,-4.24634261696,-0.364828557045,-3.13341438152
-3.2334233943,-0.817608897178,1.77697728781,-0.329548331351
0.879885294587,2.32112482261,2.11878313266,-0.455682281176
1.61319398347,2.87985854239,2.13058897752,-0.511816231004
2.57650267236,1.16859226218,0.152394822373,-1.01795018083
0.879811361239,-2.22267401803,-0.935799332772,0.445915869344
0.133120050126,-4.90394029825,-2.86399348792,-2.90021808048
-0.423571260992,-0.76520657846,-2.83218764306,-4.09635203031
-1.68026257211,0.613527141322,-0.520381798207,-2.74248598013
1.43304611678,1.13226086111,1.15142404665,-0.698619929959
3.75635480567,-4.80900541911,1.6732298915,-1.54475387979
5.24966349455,-1.01027169932,2.75503573635,1.39911217039
7.86297218344,6.30846202046,2.09684158121,4.49297822056
1.89628087232,7.25719574025,2.17864742607,4.29684427074
6.3895895612,12.19592946,3.66045327092,5.27071032091
6.36289825009,1.87466317982,2.62225911577,4.40457637108
1.55620693897,-3.49660310039,2.00406496063,2.80844242126
3.83951562786,0.792130619393,0.965870805481,4.80230847143
9.20282431674,3.35086433918,1.13767665033,9.10617452161
8.66613300563,10.729598059,1.38948249519,8.29004057178
7.05944169451,3.82833177875,0.491288340047,9.59390662196
7.1627503834,1.17706549854,0.723094184901,10.2077726721
9.08605907228,2.72579921833,0.104900029757,3.0716387223
10.5593677612,3.28453293811,0.0567058746092,3.94550477248
3.03267645005,-0.256733342103,-0.00148828053352,5.38937082265
7.74598513894,4.44200037768,0.520317564318,7.05323687282
5.07929382782,6.88073409746,-0.807876590829,2.967102923
10.6926025167,13.2394678173,0.0339292540302,9.35096897317
8.65591120559,8.87820153704,0.305735098882,14.1848350233
6.37921989448,4.52693525682,-1.17245905626,7.66870107352
5.93252858336,7.64566897661,-0.630653211407,7.5725671237
4.20583727224,1.8844026964,-2.00884736655,5.47643317387
-1.63085403887,5.30313641618,-0.827041521698,6.38029922404
2.48245465001,15.191870136,-0.725235676844,7.53416527422
3.3957633389,8.23060385575,-0.543429831992,3.62803132439
2.45907202778,2.48933757553,-0.211623987136,2.10189737456
3.60238071666,-0.0819287046761,-1.22981814228,2.39576342474
2.59568940555,3.77680501511,-0.668012297429,2.29962947491
0.598998094436,2.9255387349,-0.266206452572,2.79349552509
1.69230678332,-0.635727545319,-2.09440060772,-0.0526384247396
-3.40438452779,-3.78699382553,-1.36259476286,0.721227625435
-3.31107583891,-1.94826010575,-0.710788918008,1.50509367561
-1.54776715002,4.65047361404,0.871016926845,3.36895972578
0.86554153886,6.93920733382,2.1728227717,8.52282577596
-0.181149772256,-1.57205894639,-1.49537138344,2.47669182613
-3.28784108337,-3.8433252266,-2.72356553859,-4.1294421237
-7.29453239449,-8.62459150682,-4.25175969374,-5.03557607352
-6.4412237056,-4.03585778703,-5.44995384888,-4.82171002335
-0.817915016716,1.08287593275,-4.15814800403,-2.33784397317
-2.87460632783,-0.988390347462,-1.86634215917,-0.173977923
-5.17129763895,-3.85965662768,-3.46453631432,-7.19011187283
-7.74798895006,-10.7209229079,-0.95273046946,-9.76624582265
-8.39468026118,-7.4321891881,-0.290924624609,-8.98237977248
-10.3613715723,-11.2434554683,-1.73911877975,-14.6285137223
-9.15806288341,-7.48472174853,0.112687065102,-13.2746476721
-9.04475419453,-7.11598802875,0.764492909955,-10.400781622
-2.29144550564,-3.78725430896,1.04629875481,-8.73691557178
-5.57813681676,0.781479410824,-0.191895400334,-5.44304952161
-3.45482812787,-0.199786869391,-2.08008955548,-0.919183471434
-7.28151943898,-6.72105314961,-4.01828371063,-8.19531742126
-8.5382107501,-8.50231942982,-3.13647786577,-11.8714513711
-9.42490206122,-6.37358571003,-2.80467202092,-10.5475853209
-11.8015933723,-10.3648519902,-3.26286617606,-11.5137192707
-9.82828468345,-9.95611827046,-3.07106033121,-11.9098532206
-9.74497599456,-7.37738455068,-2.36925448636,-12.7259871704
-15.5116673057,-12.3186508309,-3.0974486415,-16.7821211202
-13.3683586168,-9.46991711111,-0.315642796646,-13.48825507
-11.0850499279,-2.42118339132,1.41616304821,-5.88438901987
-6.39174123903,5.17755032847,0.627968893066,-2.18052296969
-3.57843255014,4.00628404825,-0.550225262083,-1.27665691952
-5.74512386125,-7.21498223196,-2.12841941723,-6.90279086935
-5.28181517237,-10.2862485122,-1.79661357237,-9.37892481917
-6.39850648349,1.89248520761,1.18519227248,-1.785058769
-3.6251977946,-7.77878107261,-2.63300188266,-6.20119271882
-11.5818891057,-6.56004735282,-2.44119603781,-7.10732666865
-11.0085804168,-4.77131363303,-0.479390192955,-8.71346061848
-8.09527172795,0.88742008675,0.402415651901,-9.6395945683
-8.52196303906,5.05615380654,2.93422149675,-3.23572851813
-3.47865435018,-1.04511247368,1.42602734161,-5.35186246795
3.9046543387,-3.84637875389,-0.462166813533,-5.87799641778
-3.81203697241,-4.84764503411,-1.32036096868,-4.21413036761
-5.44872828353,-5.91891131432,0.431444876176,-0.510264317432
1.34458040536,-0.840177594535,1.43325072103,3.16360173274
2.03788909425,1.26855612525,0.325056565882,2.58746778292
3.05119778313,2.56728984504,0.82686241074,0.0713338330897
-1.84549352798,-5.04397643518,-0.881331744407,-5.30480011674
-2.1221848391,-11.4752427154,-0.919525899553,-6.05093406656
3.34112384979,-4.90650899561,-1.9977200547,-3.96706801639
6.24443253867,6.44222472418,-1.90591420984,2.94679803379
3.26774122756,7.65095844396,0.475891635011,7.36066408396
4.45104991644,-1.58030783625,1.53769747987,4.53453013413
6.32435860532,-2.26157411647,3.49950332472,6.57839618431
5.49766729421,6.03715960332,4.31130916957,8.89226223448
6.10097598309,10.8458933231,3.72311501443,9.32612828466
11.534284672,12.0146270429,3.08492085928,8.32999433483
10.1275933609,4.66336076268,3.00672670414,7.663860385
16.8709020497,5.50209448246,2.63853254899,9.26772643518
18.1942107386,8.64082820225,3.54033839385,13.0315924854
9.53751942752,19.909561922,2.7921442387,11.4754585355
12.2408281164,14.2782956418,3.31395008356,19.1493245857
11.0341368053,0.737029361608,2.90575592841,19.4531906359
7.81744549417,-1.37423691861,1.97756177327,10.457056686
12.2388335756,1.89417877908,0.560933866273,5.20175872093
9.30318019251,4.56297369987,-0.559382267453,2.36497044383
8.50752680943,3.77176862068,0.59030159883,0.658182166726
3.19187342635,-5.57943645852,1.38998546511,1.60139388962
3.58622004327,-5.03064153772,0.879669331385,2.16460561252
7.73056666019,2.40815338308,2.73935319767,6.82781733542
12.7249132771,8.81694830388,3.33903706394,10.2510290583
5.69925989403,9.65574322469,3.92872093022,8.69424078122
6.02360651095,7.07453814549,1.19840479651,8.36745250412
11.5579531279,0.443333066294,-0.701911337219,3.26066422702
12.9722997448,-4.5878720129,-2.19222747094,2.86387594992
7.14664636171,-1.5190770921,-1.87254360466,3.92708767282
0.540992978629,1.6497178287,-0.22285973838,3.04029939571
-1.23466040445,0.538512749499,-0.913175872098,5.88351111861
-0.330313787534,-0.492692329699,-2.31349200582,4.05672284151
4.89403282939,7.2061025911,-0.123808139542,4.59993456441
9.36837944631,6.57489751191,-0.454124273263,10.4931462873
6.83272606323,6.96369243271,-3.20444040699,7.36635801021
-0.0429273198533,4.52248735351,-1.2347565407,5.47956973311
1.29141929707,-0.808717725689,-0.965072674426,5.322781456
6.79576591398,8.30007719511,2.56461119185,7.5459931789
11.9701125309,13.2988721159,3.06429505814,17.6592049018
9.54445914783,3.18766703672,0.53397892441,15.0724166247
-4.28119423526,-0.353538042484,-1.35633720931,5.6456283476
-5.82684761833,-1.84474312168,-3.39665334303,-2.8811599295
-5.64250100142,-4.06594820087,-2.09696947675,-3.2079482066
