-13.9990334302,-9.47405159882,-2.72816133721,-5.01095566861
-18.0558276872,-11.895131987,0.204207591328,-6.85520119942
-16.8426219442,-16.0362123752,-0.0234234801337,-11.4594467302
-21.4394162012,-16.3872927634,-0.871054551595,-10.223692261
-19.0562104582,-18.2883731517,-1.80868562306,-11.4879377918
-20.1930047152,-20.1994535399,-3.05631669452,-18.0821833227
-20.4497989723,-20.4605339281,-4.61394776598,-16.6464288535
-17.4665932293,-14.9216143163,-2.56157883744,-9.75067438427
-14.1033874863,-22.1026947045,-3.0192099089,-8.80491991508
-15.9801817433,-18.8737750927,-5.67684098036,-16.0891654459
-21.5069760003,-16.8748554809,-6.93447205182,-13.2934109767
-20.4337702573,-16.5759358691,-5.07210312329,-12.1476565075
-18.2805645143,-16.3070162573,-4.82973419475,-13.1919020383
-15.2973587713,-17.9480966455,-5.60736526621,-14.8161475691
-13.4341530283,-19.0591770337,-3.36499633767,-16.8403930999
-6.29094728529,-11.0902574219,-2.11262740913,-9.77463863075
0.0222584577059,-10.4213378101,-2.09025848059,-6.52888416156
-2.9945357993,-5.22241819835,-0.0778895520525,-4.04312969237
1.1286699437,-6.22349858656,0.264479376486,-4.23737522318
4.1818756867,-5.24457897476,-2.77315169498,-2.55162075399
-6.04491857031,-5.27565936297,-4.09078276644,-6.5458662848
0.688287172685,-3.89673975118,-3.3984138379,-5.58011181561
3.11149291568,-1.31782013939,-2.23604490936,-3.47435734641
-1.61530134132,0.281099472406,-1.33367598082,-2.81860287722
5.31790440167,-0.889980915803,0.168692947718,2.34715159197
8.36111014467,8.41893869599,2.00106187626,5.70290606116
9.82431588766,8.34785830778,0.123430804796,5.88866053035
8.08752163066,6.00677791958,-1.66420026666,5.29441499954
3.72072737365,5.03569753137,-1.17183133813,2.37016946873
6.65393311665,5.25461714316,-2.52946240959,3.09592393792
2.59713885965,5.69353675496,-1.45709348105,2.43167840711
9.38034460264,6.40245636675,-1.78472455251,0.827432876302
7.82355034564,7.73137597854,0.047644376029,1.90318734549
7.78675608863,7.43029559033,2.42001330457,4.11894181468
12.7799618316,8.22921520212,2.09238223311,6.00469628387
19.0231675746,9.46813481392,3.56475116165,6.23045075306
9.41637331762,9.50705442571,3.36712009018,4.18620522226
8.03957906062,10.2359740375,3.14948901872,4.65195969145
6.75278480362,8.68489364929,3.08185794726,2.67771416064
16.5759905466,8.20381326109,1.0942268758,2.94346862983
5.0291962896,8.70273287288,1.29659580434,1.02922309902
8.3224020326,10.3316524847,1.29896473288,4.47497756821
7.68560777559,12.3305720965,1.88133366142,6.1807320374
14.7288135186,12.6094917083,4.88370258996,10.5064865066
17.6720192616,10.1184113201,3.56607151849,10.0122409758
4.73522500458,7.76733093184,3.92844044703,5.50799544497
8.02843074758,11.6462505436,3.81080937557,7.65374991416
9.91163649057,12.1051701554,6.25317830411,11.3695043834
13.6348422336,14.9140897672,8.46554723265,12.1852588525
9.52804797656,17.093009379,4.57791616119,12.9710133217
15.3512537196,18.1319289908,5.37028508973,16.7767677909
19.1344594626,19.0408486026,5.46265401827,14.8425222601
18.7676652056,16.1297682144,5.5250229468,12.8582767293
9.45087094855,14.4586878262,3.94739187534,12.1940311985
13.3940766915,12.417607438,3.13976080388,10.0297856677
1.33728243454,12.1465270498,4.77212973242,9.25554013688
8.78048817754,8.06544666156,2.51449866096,6.13129460607
20.4836939205,7.05436627335,1.7168675895,9.19704907526
5.73689966353,7.91328588515,3.36923651804,12.3528035445
14.7301054065,6.67220549694,2.75160544658,9.13855801364
11.3933111495,11.0911251087,4.49397437511,12.4943124828
7.48651689251,8.35004472052,1.00634330365,8.50006695202
19.0997226355,8.31896433232,-0.661287767809,8.21582142121
28.4429283785,9.00788394411,0.59108116073,13.2115758904
6.3661341215,4.9968035559,0.933450089269,11.0473303596
-0.910660135502,6.32572316769,2.29581901781,9.77308482878
12.6925456075,9.75464277949,4.05818794635,10.498839298
9.23575135049,12.1835623913,4.58055687489,12.7845937672
12.5689570935,11.9724820031,2.97292580342,15.7203482364
0.402162836479,8.12140161486,-0.874705268037,10.1161027055
4.05536857948,6.95032122666,-1.2223363395,8.53185717474
14.0485743225,7.38924083845,-1.55996741096,7.57761164393
4.85178006547,0.51816045024,-4.30759848242,0.963366113119
-2.33501419154,-2.87291993797,-3.61522955388,-0.950879417689
2.04819155146,0.225999673828,-0.0528606253438,3.2548750515
-2.04860270554,-0.49508071438,0.349508303196,-0.379370479308
2.04460303745,0.973838897411,1.85187723173,-1.02361601012
6.00780878045,5.0027585092,0.334246160273,1.49213845907
-3.49898547656,6.051678121,0.606615088812,3.43789292826
4.88422026643,7.49059773279,1.02898401735,5.41364739746
-4.31257399057,6.18951734458,0.52135294589,0.919401866646
-4.00936824757,6.23843695637,1.05372187443,0.995156335837
-1.23616250458,0.977356568168,2.26609080297,-1.76908919497
-2.94295676158,3.54627617996,4.07845973151,1.63666527422
-2.99975101859,4.69519579175,5.51082866004,9.59241974341
-5.72654527559,3.86411540354,1.33319758858,5.3081742126
-1.17333953259,2.44303501534,-2.50443348288,-0.946071318211
0.459866210404,1.04195462713,-1.41206455434,1.69968315098
-12.0269280466,1.68087423892,0.4503043742,2.06543762017
-10.2237223036,-0.160206149285,-2.18732669726,-2.73880791064
-8.54051656061,-2.11128653749,-1.33495776872,-6.82305344145
-10.9273108176,1.0976330743,-0.392588840185,-5.82729897226
-9.91410507461,1.60655268609,-0.280219911646,-4.80154450307
-8.76089933162,1.32547229789,-0.547850983107,-0.905790033876
-3.51769358863,1.31439190968,-1.03548205457,0.529964435314
-3.49448784563,1.93331152147,-1.61311312603,3.17571890451
-6.34128210264,3.91223113326,-3.09074419749,0.901473373697
-14.3880763596,1.02115074505,-3.64837526895,-3.49277215711
-6.75487061665,-7.05992964315,-3.14600634041,-7.84701768792
5.74833512635,-3.94101003136,1.23636258813,-3.64126321873
-8.94845913065,-3.77209041957,0.788731516664,-2.29550874954
-6.03525338766,-0.273170807774,0.661100445202,-1.23975428035
-8.50204764466,-1.73425119598,0.373469373742,-1.67399981116
-4.36884190167,-2.81533158419,0.41583830228,-0.848245341969
4.05436384133,-3.7864119724,1.51820723082,-4.03249087278
-8.59243041567,-4.3974923606,1.76057615936,-7.47673640359
-9.38922467268,-5.96857274881,0.582945087896,-8.6309819344
-14.1860189297,-6.28965313702,-0.554685983565,-11.7352274652
-9.75281318669,-6.23073352523,-0.112317055025,-7.22947299602
-13.4096074437,-8.99181391344,-2.26994812649,-10.8937185268
-7.1664017007,-11.1528943016,-3.43757919795,-12.8779640576
-10.0831959577,-11.2239746899,-3.16521026941,-9.20220958844
-7.52999021471,-8.44505507806,-1.06284134087,-5.68645511925
-0.326784471705,-8.71613546626,0.239527587668,-5.86070065006
-0.333578728714,-6.37721585447,-0.0281034837926,-5.34494618087
-10.9203729857,-5.80829624268,-0.895734555254,-6.29919171168
-2.55716724272,-4.22937663089,-3.06336562672,-4.28343724249
-7.01396149972,-2.86045701909,-0.740996698177,0.3723172267
7.94924424327,-3.0215374073,-0.708627769638,0.178071695891
-3.64755001373,-3.54261779551,-1.4962588411,-1.24617383492
4.96565572926,-6.81369818372,-1.46388991256,-1.55041936573
0.00886147225901,-6.62477857192,-2.07152098402,-4.72466489654
-6.50793278475,-12.5358589601,-4.14915205548,-7.19891042735
1.81527295825,-10.5969393483,-2.68678312694,-3.26315595816
2.89847870125,-13.8480197365,-4.0244141984,-6.84740148897
-0.15831555576,-11.8691001248,-2.15204526987,-5.12164701977
0.684890187236,-13.380180513,-0.869676341328,-8.33589255058
-2.93190406977,-15.2612609012,-2.67730741279,-10.4501380814
0.342899709303,-0.883699127899,-0.0455813953495,-1.50596293605
0.974874221756,-2.26406656289,-0.0113018162901,-2.7468274469
2.40684873421,-0.574433997885,-0.287022237228,-1.53769195775
3.34882324666,-3.17480143288,-1.10274265817,-2.0085564686
2.65079775911,-3.92516886787,-0.488463079107,-2.53942097945
7.11277227156,-4.83553630286,-1.93418350005,-2.3802854903
10.654746784,-4.25590373786,-1.42990392099,-0.651150001151
-1.51327870353,-4.71627117285,0.374375658074,-1.092014512
-6.81130419108,-1.75663860785,-1.63134476287,-3.79287902285
-3.57932967863,-1.23700604284,-1.3070651838,-2.2237435337
-2.76735516618,0.572626522167,0.247214395256,-0.544608044549
-10.2853806537,-0.697740912827,-0.678506025683,-2.5754725554
-5.82340614127,-6.26810834782,-2.47422644662,-3.35633706625
-10.9714316288,-2.52847578282,-2.37994686756,-1.6972015771
-16.6094571164,-2.51884321781,-0.575667288501,-3.56806608795
-16.4374826039,-6.5892106528,1.68861229056,-7.9489305988
-16.0255080915,-3.9495780878,2.51289186962,-6.66979510964
-0.883533579014,2.24005447721,2.96717144868,0.0393403795042
-1.80155906656,3.62968704222,0.991451027742,0.0384758686541
-7.73958455411,0.759319607223,0.415730606802,-1.0923886422
-10.0876100417,-6.27104782777,1.14001018586,-6.09325315304
-11.9756355292,-8.78141526277,-0.585710235076,-9.37411766389
-4.65366101675,-5.55178269776,0.318569343984,-4.01498217474
-10.7216865043,0.0478498672492,3.19284892304,-0.475846685593
-11.1797119919,1.06748243226,5.05712850211,-1.20671119644
-5.7077374794,0.64711499726,4.37140808117,-0.0875757072936
-2.38576296695,4.72674756227,3.00568766023,2.78155978186
5.06621154551,4.13638012727,0.959967239287,4.19069527101
-0.281813942041,-0.853987307721,-2.40575318165,-0.0801692398418
-8.57983942959,-3.44435474271,-2.37147360259,-1.50103375069
-9.95786491714,-4.32472217771,-0.797194023531,-4.67189826154
-10.2958904047,-7.5250896127,-1.68291444447,-9.49276277239
-0.403915892235,-11.0754570477,-4.97863486541,-9.53362728324
-3.90194137978,-4.82582448269,-0.834355286349,-7.23449179409
-0.959966867329,-0.656191917682,1.23992429271,-0.72535630494
9.85200764512,3.76344064732,1.69420387177,3.86377918421
7.51398215758,5.69307321233,1.76848345083,2.23291467336
0.465956670025,2.80270577734,-0.917236970106,-0.107949837487
-1.46206881752,-0.31766165766,-3.23295739105,-3.45881434834
4.26990569493,-2.31802909265,-2.70867781199,-3.22967885919
8.64188020738,-0.228396527644,-2.04439823293,1.61945662996
-3.54614528017,0.541236037359,-1.32011865386,0.218592119114
0.0458292322874,3.73086860237,-0.435839074803,1.33772760826
5.91780374474,4.72050116738,-1.66155949574,1.74686309741
4.20977825719,1.27013373238,-0.707279916683,-0.174001413436
7.89175276964,5.90976629739,0.756999662379,5.75513407571
5.57372728209,5.26939886239,1.26127924144,8.26426956487
-4.64429820546,6.6190314274,2.5855588205,8.02340505402
6.207676307,7.36866399241,1.85983839956,10.4625405432
3.84965081945,7.24829655741,0.844117978621,8.79167603232
3.7716253319,-0.0520708775839,-0.911602442318,7.03081152147
7.65359984435,-7.50243831257,-3.15732286326,-0.930052989381
-3.1944256432,-8.14280574757,-2.3630432842,-4.56091750023
2.98754886926,-2.45317318256,-1.45876370514,-1.18178201108
5.59952338171,0.396459382446,1.68551587392,2.03735347807
10.8614978942,-1.89390805255,0.849795452985,1.18648896722
1.93347240661,-2.30427548755,-0.835924967954,-3.83437554363
8.25544691907,0.685357077462,-2.08164538889,0.414759945521
7.68742143151,-0.225010357532,-0.727365809833,0.123895434672
3.64939594396,5.64462220747,2.88691376923,5.00303092382
5.61137045642,2.70425477248,2.45119334829,5.45216641297
8.60334496887,2.13388733749,-0.494527072651,2.46130190212
8.54531948132,7.98351990249,2.48975250641,5.29043739127
4.77729399377,7.1431524675,3.24403208547,4.59957288042
4.65926850623,-0.317214967494,-1.22168833547,-2.08129163043
3.38124301868,0.172417597514,-0.467408756409,0.397843858724
8.51321753113,1.43205016252,2.49687082265,3.13697934787
12.9551920436,-1.32831727247,-0.468849598288,0.206114837023
5.02716655603,0.221315292532,-2.29457001923,1.50525032617
4.03914106849,-0.949052142463,-1.27029044017,1.98438581533
8.43111558094,2.77058042255,-0.186010861106,5.71352130448
12.8730900934,1.69021298755,-2.68173128204,2.72265679362
8.34506460584,0.719845552558,-3.29745170298,1.23179228278
14.1770391183,4.14947811756,-1.22317212392,4.03092777193
12.8190136307,3.21911068257,-1.52889254486,5.44006326108
9.5309881432,4.36874324757,0.115387034198,6.98919875023
8.40296265565,1.72837581258,-1.78033338674,1.24833423938
4.9949371681,1.68800837759,-1.89605380768,0.557469728528
15.1769116806,6.1276409426,1.03822577138,7.28660521768
3.72888619301,10.1672735076,2.97250535044,11.5157407068
10.1308607055,9.05690607261,2.0967849295,8.95487619598
8.72283521791,7.36653863761,0.271064508561,5.91401168513
2.94480973036,8.18617120262,1.08534408762,3.93314717428
10.5367842428,11.7758037676,3.64962366668,9.68228266343
4.57875875527,14.8454363326,5.06390324574,11.4314181526
5.62073326771,8.84506889764,1.2581828248,8.26055364173
5.57270778017,9.99470146265,1.17246240386,6.24968913088
3.63468229262,4.15433402765,1.40674198293,2.73882462003
0.676656805073,6.17396659266,2.11102156199,5.58796010918
-10.2113686825,11.2135991577,3.82530114105,7.86709559833
3.72060582998,1.86323172267,0.439580720107,3.46623108748
4.94258034243,3.39286428768,0.203860299167,3.89536657663
-3.51544514512,2.57249685268,0.438139878228,2.49450206578
5.03652936733,6.97212941769,2.48241945729,4.17363755494
2.50850387978,6.4417619827,3.47669903635,6.97277304408
-6.84952160776,0.0613945477053,1.32097861541,2.30190853323
-7.52754709531,-0.598972887292,1.78525819447,0.361044022386
-3.46557258286,-0.809340322285,0.0495377735315,1.13017951154
-3.34359807041,-1.46970775728,-0.946182647408,-0.680684999314
-2.05162355796,-1.07007519227,-1.42190306835,1.37845048984
-1.7296490455,-1.36044262727,-1.72762348929,0.867585978987
0.922325466949,3.52918993774,0.716656089774,2.48672146814
-7.5157000206,1.21882250275,-1.54906433117,0.565856957288
-8.25372550815,-1.07154493225,-2.0547847521,-3.36500755356
-10.6317509957,-4.88191236724,1.26949482696,-4.11587206441
-11.5597764832,-6.26227980223,1.37377440602,-5.50673657526
-9.84780197079,-6.22264723723,0.468053985077,-4.87760108611
-1.80582745834,-2.82301467222,-0.397666435862,-1.19846559696
-6.26385294589,-0.553382107213,-0.923386856802,-3.04933010781
-3.12187843344,-3.86374954221,-1.01910727774,-4.77019461866
-5.63990392098,-3.0741169772,-0.254827698681,-5.08105912951
-5.05792940853,-4.51448441219,-0.73054811962,-6.86192364036
-10.1259548961,-6.76485184719,-2.88626854056,-10.2127881512
-15.3139803836,-6.03521928218,-2.5619889615,-9.22365266206
-9.31200587118,-8.07558671718,0.352290617562,-8.64451717291
-10.5500313587,-6.18595415217,1.25657019662,-7.98538168376
-11.9680568463,-7.54632158716,-2.30915022432,-5.81624619461
-5.24608233382,-8.20668902216,-3.52487064526,-6.45711070546
0.665892178629,-8.18705645715,-2.6905910662,-9.18797521631
-1.35213330892,-8.08742389215,-3.92631148714,-9.31883972716
-4.72015879647,-8.67779132714,-2.37203190807,-6.049704238
-3.13818428402,-6.78815876213,-1.28775232901,-1.73056874886
-4.06620977156,-3.40852619713,0.176527250047,-1.39143325971
0.48576474089,1.86110636788,1.86080682911,1.94770222945
0.92773925334,-0.169261067113,1.36508640817,3.0168377186
1.29971376579,-3.63962850211,-0.080634012771,-2.63402679225
-2.19831172175,-2.9599959371,0.753645566289,-7.3448913031
4.6536627907,-2.6103633721,2.82792514535,-5.12575581395
-11.2562209302,-1.26857194768,-0.653677325582,-3.37534883722
-7.81327970495,-2.36952824574,-1.45261670825,-5.21879806813
-6.36033847967,-6.15048454381,-2.03155609092,-8.76224729904
-10.7473972544,-3.18144084188,-1.50049547359,-6.02569652995
-9.00445602911,-0.102397139948,0.0705651437456,-3.12914576086
-14.2015148038,-6.41335343802,-3.86837423892,-9.82259499177
-8.72857357855,-6.48430973608,-2.03731362159,-7.97604422268
-4.63563235327,-5.97526603415,-1.78625300426,-5.88949345359
-4.53269112799,-5.25622233222,-3.64519238693,-6.1429426845
2.91025009729,-5.23717863029,-3.53413176959,-4.65639191541
-2.32680867743,0.181865071641,-3.71307115226,0.320158853683
-3.44386745216,-8.06909122643,-4.49201053493,-3.94329037723
-3.45092622688,-9.4800475245,-5.1409499176,-5.01673960814
-11.6979850016,-10.2010038226,-6.07988930027,-6.44018883905
-3.56504377631,-6.82196012063,-4.17882868293,-2.96363806996
-0.132102551037,-5.4029164187,-3.8877680656,-1.76708730087
2.06083867424,-3.90387271677,-1.38670744827,-0.640536531777
3.55377989952,-4.69482901484,-0.825646830938,-0.603985762687
3.6367211248,-4.8757853129,-1.63458621361,-0.547434993598
-1.95033764992,-2.32674161097,0.416474403726,-1.25088422451
2.91260357536,-0.257697909041,-0.0724649789418,2.31566654458
0.785544800638,-1.05865420711,0.88859563839,3.82221731367
1.25848602592,1.55038949482,0.669656255723,3.94876808276
2.2814272512,-0.310566803244,-0.159283126946,2.68531885185
-0.0256315235238,0.88847689869,-0.00822250961392,3.34186962094
3.56730970175,2.24752060062,1.11283810772,3.06842039003
0.500250927034,3.34656430255,0.04389872505,2.81497115912
-0.506807847687,3.67560800448,2.32495934238,3.92152192821
1.41613337759,3.17465170642,5.51601995971,1.9380726973
-6.32092539713,-3.95630459165,2.67708057705,-3.45537653361
-4.42798417185,1.80273911028,2.98814119438,-1.11882576452
2.54495705343,0.481782812207,2.58920181171,-2.20227499543
4.10789827871,-1.34917348586,0.240262429042,-1.85572422634
-1.84916049601,-1.89012978393,-0.188676953626,-2.95917345725
4.49378072927,1.408913918,1.02238366371,1.76737731184
5.14672195454,1.09795761994,1.62344428104,0.953928080933
11.1996631798,-0.832998678132,2.56450489837,-1.75952114998
-5.79739559489,-5.4139549762,1.8255655157,-8.81297038089
-9.39445436962,-7.18491127427,2.00662613303,-10.5464196118
-5.75151314434,-4.30586757234,0.667686750367,-5.97986884271
-3.85857191906,-1.38682387041,0.978747367698,-3.43331807362
-1.11563069378,1.92221983153,2.96980798503,-0.806767304528
-0.962689468503,1.11126353346,4.51086860236,-0.800216535437
-5.65974824322,3.41030723539,5.38192921969,0.126334233653
-3.42680701794,-1.96064906268,2.90298983703,-4.48711499726
0.776134207339,0.968394639254,3.14405045436,-4.43056422817
-9.54092456738,-0.822561658813,1.33511107169,-4.48401345908
-2.2479833421,0.216482043121,2.18617168902,-1.76746268999
-2.18504211682,4.12552574505,1.60723230635,1.1290880791
2.96789910845,4.92456944698,1.01829292369,7.37563884819
-2.45915966626,5.24361314891,5.55935354102,7.27218961728
4.90378155901,6.87265685084,6.14041415835,6.03874038637
-2.74327721571,4.96170055278,4.98147477568,2.44529115546
-4.02033599043,2.81074425471,3.90253539301,0.271841924552
-5.35739476515,1.61978795664,2.13359601035,-0.831607306358
7.64554646013,5.79883165857,2.54465662768,3.35494346273
3.90848768541,4.7678753605,2.24571724501,4.17149423182
-0.228571089312,5.23691906243,1.08677786234,6.05804500091
5.95437013597,8.55596276437,1.17783847967,6.61459577
1.23731136125,3.4350064663,0.368899097006,0.361146539093
5.12025258653,1.20405016823,-0.370040285663,-0.182302691817
0.623193811807,6.60309387016,3.46102033167,2.91424807727
0.896135037081,0.742137572095,1.672080949,2.50079884636
8.95907626236,0.721181274028,-0.406858433666,5.23734961545
12.2420174876,0.600224975959,-3.02579781633,7.73390038454
11.9649587129,1.57926867789,-2.644737199,5.58045115363
12.5678999382,-1.50168762018,-3.29367658167,3.35700192272
11.3308411635,-6.43264391824,-3.72261596434,4.55355269181
12.1337823888,2.77639978369,-2.65155534701,9.4301034609
10.876723614,1.61544348562,-1.60049472967,6.00665422999
10.4996648393,5.36448718755,0.480565887658,5.99320499908
6.9226060646,6.29353088948,2.00162650499,4.01975576817
6.46554728988,9.20257459141,3.18268712232,6.30630653726
10.2684885152,13.6216182933,3.03374773965,11.1728573064
8.96142974043,10.6906619953,3.58480835699,10.3094080754
11.5043709657,12.5197056972,0.635868974318,9.85595884453
11.417312191,8.86874939914,-2.15307040835,9.71250961362
8.48025341627,10.6277931011,2.57799020898,12.1990603827
5.93319464155,9.336836803,3.27905082631,12.2356111518
10.5561358668,5.43588050493,-0.349888556355,11.6621619209
3.61907709211,12.0549242069,-0.388827939022,10.77871269
1.34201831739,7.4839679088,-0.327767321691,5.45526345907
3.83495954267,15.2430116107,2.69329329564,9.91181422816
5.86790076795,5.85205531266,-2.08564608703,6.85836499725
6.67084199323,-2.95890098541,-5.77458546969,1.97491576634
7.5837832185,2.40014271653,-5.17352485236,5.50146653543
7.17672444378,8.85918641846,-4.55246423503,7.70801730452
8.48966566906,0.158230120389,-4.5914036177,4.45456807361
11.4826068943,-0.92272617768,-4.73034300037,0.731118842701
11.1055481196,-1.05368247575,-5.48928238303,1.20766961179
7.8584893449,5.95536122618,-4.0982217657,5.49422038088
10.3114305702,7.58440492811,-2.51716114837,4.83077114997
7.31437179546,13.61344863,2.06389946896,7.81732191906
6.23731302074,5.97249233198,1.19496008629,3.67387268815
3.53025424602,13.6515360339,4.61602070363,6.77042345724
3.9231954713,2.05057973584,3.31708132096,1.72697422633
2.18613669658,7.58962343777,1.45814193829,3.19352499542
1.21907792185,-12.7813328603,-4.12079744438,-7.00992423549
-4.23798085287,7.50771084164,3.38026317295,-0.643373466399
1.65496037241,8.69675454357,1.60132379029,-3.42682269731
2.34790159769,-16.5242017545,-7.02761559238,-11.6002719282
-0.67915717703,-5.75515805257,-5.26655497505,-7.81372115913
-1.10621595175,-2.04611435063,-2.09549435772,-3.90717039004
-3.09327472647,-4.2670706487,5.30556625961,-3.27061962095
-5.00033350119,-8.42802694677,1.57662687695,-4.89406885186
-5.60739227591,-6.72898324484,-0.992312505722,-5.77751808277
-4.56445105063,-8.91993954291,-2.45125188839,-6.07096731368
-5.30150982535,-11.280895841,-2.49019127106,-7.13441654459
-8.74856860008,-3.32185213904,0.520869346274,-3.0578657755
-12.3456273748,-7.12280843711,-1.41807003639,-9.52131500641
-11.5426861495,-15.4437647352,-1.04700941906,-13.8547642373
-12.7297449242,11.8652789668,12.7040511983,0.581786531771
-12.626803699,4.15432266868,3.4051118156,-3.25166269914
-10.4838624737,-15.8166336294,-6.34382756707,-5.36511193005
-4.6809212484,-5.26758992745,-1.47276694973,-2.17856116096
-5.66798002312,15.6514537745,6.3282936676,8.58798960813
-8.86503879784,28.9204974764,5.61935428493,6.71454037722
-7.66209757256,-15.1804588217,-3.92958509774,-12.1089088537
-10.6791563473,-19.8614151197,-5.15852448041,-12.8623580846
-11.646215122,-14.0523714178,0.142536136926,-11.5758073155
-7.22327389673,-7.86332771586,0.673596754258,-9.72925654642
-8.90033267144,-7.39428401393,1.21465737159,-5.25270577733
-6.15739144617,-0.495240312001,-4.62428201108,-2.48615500824
-3.14445022089,-16.9961966101,-5.27322139375,-0.30960423915
-0.441508995606,7.77284709187,2.41783922359,5.35694652994
-5.38856777033,-8.2381092062,-0.401100159082,-8.95650270097
-5.94562654505,-17.8290655043,-1.98003954175,-10.7499519319
-5.05268531977,-13.2500218023,-1.24897892442,-9.33340116279
7.72626453489,-5.55455305232,1.4118931686,1.27387718023
6.44787970954,-1.35454409678,1.25838156358,-0.435663454497
7.91949488419,-8.02453514123,0.664869958564,-7.09520408922
2.17111005883,-2.62452618568,7.37135835355,-4.31474472395
-1.09727476652,2.32548276987,4.51784674853,-1.81428535868
-0.675659591874,1.02549172542,-1.98566485649,1.01617400659
3.57595558278,-4.43449931903,-0.839176461504,-0.373366628137
6.04757075742,1.99550963651,-0.202688066523,2.52709273713
8.05918593207,8.49551859206,-2.05619967154,3.90755210241
6.16080110672,6.33552754761,-3.70971127656,3.24801146768
5.64241628136,16.9455365032,0.816777118425,5.79847083295
4.07403145601,-3.53445454129,1.13326551341,-0.271069801778
2.86564663066,7.49555441425,2.90975390839,1.3793895635
0.757261805305,9.2155633698,6.64624230337,-1.42015107123
1.46887697995,8.57557232535,2.78273069836,-3.21969170596
3.4404921546,10.2955812809,1.39921909334,2.50076765931
2.74210732925,-17.3144097635,-2.86429251168,-3.71877297542
2.2237225039,1.425599192,1.5421958833,-1.50831361015
-0.834662321457,1.30560814754,1.79868427829,2.68214575513
-1.46304714681,-10.4343828969,-3.54482732673,-3.9373948796
3.80856802784,1.78562605864,-3.77833893175,5.13306448567
1.77018320248,1.79563501419,-1.36185053676,0.903523850942
1.32179837713,4.56564396974,2.57463785822,2.01398321621
-1.11658644822,4.46565292529,1.4911262532,4.17444258149
0.805028726427,22.5356618808,6.98761464818,8.95490194676
2.56664390107,3.64567083639,1.09410304317,1.92536131203
3.20825907572,-8.16432020807,-2.17940856185,-4.8541793227
3.11987425037,-10.4543112525,-2.20292016687,-3.85371995743
2.44148942501,13.095697703,4.44356822811,6.62673940785
3.00310459967,17.0657066586,4.3400566231,10.2171987731
2.19471977431,-1.42428438587,-3.39345498192,2.98765813839
-0.753665051041,-0.554275430324,-1.23696658694,-4.75188249634
-4.20204987639,3.39573352523,-0.540478191956,-12.8014231311
-0.900434701744,6.40574248077,-0.713989796973,5.00903623421
-4.2088195271,-5.92424856368,1.30249859801,2.69949559948
-1.70720435245,-5.61423960813,5.97898699299,7.65995496475
-3.1355891778,-0.504230652579,-0.544524612024,-8.28958566998
-2.36397400316,6.83577830297,-1.94803621704,0.000873695295013
-7.08235882851,-2.64421274148,0.298452177941,-0.368666939434
-4.91074365386,28.4557962141,7.42494057292,10.4017924258
-6.52912847921,-4.49419483039,4.71142896791,1.57225179111
-6.16751330456,-5.77418587484,5.15791736289,-3.64728884362
-5.14589812992,-3.66417691929,-3.41559424213,-3.15682947835
-4.85428295527,3.50583203626,-0.619105847147,-6.82637011307
-5.64266778062,-6.1141590082,0.687382547837,11.3540892522
-6.94105260598,0.835849947354,1.20387094282,2.03454861747
-3.82943743133,-8.1341410971,-0.129640662198,-1.90499201726
-0.23782225668,-16.7541321415,-2.20315226722,11.225467348
-1.91620708203,19.695876814,5.86333612777,7.39592671329
0.185408092613,26.1458857695,3.76982452275,10.5663860786
4.42702326726,21.1758947251,1.29631291773,10.3568454438
1.55863844191,-10.2940963194,-2.18719868728,3.5573048091
1.98025361656,-9.59408736381,-6.5807102923,0.667764174374
4.8418687912,5.66592159174,-0.63422189732,3.72822353965
3.20348396585,4.80593054729,2.41226649766,0.348682904918
-1.1749008595,-10.3340604972,0.0487548926458,3.62914227019
1.19671431515,-14.7440515416,-4.37475671237,-4.07039836454
2.75832948979,-1.11404258606,-2.77826831739,-0.569938999266
-0.270055335561,-5.07403363052,-3.67177992241,0.610520366006
-0.778440160913,-10.244024675,-3.12529152742,-0.0190202687227
-2.03682498627,-14.5040157194,-2.62880313244,-2.68856090345
0.214790188384,9.94599323613,-1.28231473746,6.07189846182
-4.54359463697,13.8460021917,-0.0058263424753,-2.65764217291
-4.01197946232,-16.4739888528,-4.77933794749,-4.42718280763
-3.77036428767,-6.82397989723,-1.02284955251,-0.366723442363
-3.43874911303,-11.6339709417,1.04363884247,-5.86626407709
-1.60713393838,-3.12396198613,-1.43987276254,-5.80580471182
-0.155518763735,1.08604696942,2.32661563244,1.29465465345
-8.18390358909,-12.213944075,-3.56689597258,-6.93488598127
-5.61228841444,-17.8839351195,-8.4804075776,-9.954426616
-5.01067323979,-6.75392616394,-4.25391918261,-6.50396725073
-7.82905806514,3.45608279161,1.67256921237,-6.55350788546
-6.19744289049,-10.2839082528,-4.51094239265,-1.97304852019
-8.95582771585,-8.54389929729,-3.05445399767,-7.79258915491
-12.1542125412,-11.4838903417,1.24203439732,-14.7921297896
-8.91259736655,-6.75388138619,-4.0014772077,-11.8316704244
-5.41098219191,-7.98387243065,-4.95498881272,-0.701211059099
-5.13936701726,7.9461365249,3.94149958226,1.92924830617
-2.21775184261,7.68614548045,3.00798797725,7.88970767145
-3.93613666796,3.996154436,3.79447637223,2.99016703672
-2.98452149332,-10.9638366085,-8.82903523279,-6.26937359801
-7.76290631867,-15.2038276529,-4.9125468378,-2.74891423274
-5.60129114402,-0.0938186973544,-7.94605844282,-3.61845486747
-4.68967596937,-9.96380974181,-6.37957004784,-13.3779955022
-6.11806079473,-15.1338007863,-1.16308165286,-10.6975361369
3.51355437992,-9.26379183071,-2.36659325787,-5.89707677165
-3.21483044543,1.79621712484,-6.87010486289,-5.25661740638
-4.22321527078,4.04622608039,-3.49361646791,-3.74615804111
-4.03160009614,-23.0737649641,-4.08712807293,-4.93569867583
-2.79998492149,-27.9837560085,-8.85063967794,-12.7852393106
-1.88836974684,10.526252947,-3.87415128296,-4.38477994529
1.5532454278,-11.4137380974,-5.86766288798,-12.37432058
1.77486060245,5.94627085813,2.31882550701,-5.20386121475
3.8464757771,14.6862798137,0.0953139019875,6.45659815053
5.20809095175,-14.6937112308,-10.448197703,-10.9829424842
-0.160293873603,-11.3937022752,-1.03170930805,-2.00248311893
-4.46867869896,-12.9036933197,-4.78522091306,3.66797624634
-4.24706352431,-0.143684364128,-2.27873251808,-3.11156438839
0.574551650334,2.88632459142,-1.0222441231,-0.0711050231148
3.98616682498,-5.86366645303,-3.89575572812,-4.57064565784
4.90778199963,-3.38365749748,-2.63926733313,2.27981370743
4.54939717428,9.14635145806,2.25722106185,4.5802730727
6.15101234893,10.2763604136,12.5937094568,14.140732438
-0.887372476423,7.56636936916,7.90019785181,0.431191803245
-3.95575730178,-15.5036216753,-6.9533137532,-19.1783488315
0.155857872865,7.57638728026,4.22317464178,-2.10788946621
1.11747304751,14.7363962358,4.20966303676,13.2925698991
2.71908822216,5.74640519136,6.42615143174,9.93302926433
5.91070339681,6.11641414691,3.37263982673,7.1534886296
5.60231857146,-7.34357689755,0.0891282217099,0.463947994876
3.87393374611,17.016432058,7.20561661669,11.4344073601
7.96554892075,27.8264410135,-0.477894988324,19.4248667254
2.9571640954,3.8064499691,3.87859340666,3.12532609069
7.19877927005,-12.3535410754,-1.29491819836,-4.54421454404
12.0203944447,-12.4535321198,2.35157019662,3.47624482124
4.29200961934,13.8864768357,7.64805859161,6.70670418651
2.56362479399,9.29648579129,6.20454698659,-0.56283644822
1.64523996864,19.8164947468,7.98103538157,8.43762291705
2.62685514329,-7.16349629761,-4.98247622345,0.318082282323
0.838470317929,4.60651265794,3.60401217154,-0.111458352403
-0.999914507422,15.5465216135,0.680500566519,3.74900101287
3.49170066723,5.16653056903,5.4269889615,0.92946037814
11.3133158419,7.93653952458,6.59347735648,14.2899197434
12.9349310165,-15.1634515199,-5.67003424853,-1.76962089132
-0.673453808831,-3.54344256432,-1.82354585355,-0.719161526044
-3.38183863418,0.336566391226,3.93294254143,-3.51870216077
-2.91022345953,5.84657534678,2.34943093642,-8.3982427955
0.841391715108,22.9365843023,5.0359193314,10.4622165698
1.99014171512,-11.9855123546,-5.27237281977,5.24328488372
7.54984789874,18.1770867572,-1.55008028521,2.78195977728
1.80955408236,11.5496858691,-0.137787750643,0.790634670848
4.95926026598,-1.15771501899,4.93450478392,14.5793095644
2.9789664496,10.4848840929,4.75679731848,9.25798445797
-1.49132736678,11.4574832048,8.30908985305,7.76665935154
1.09837881684,-13.0899176833,7.97138238761,5.2553342451
1.12808500046,15.0826814285,10.7636749222,11.6240091387
-2.96220881592,-0.794719459569,2.37596745674,-1.31731596777
-0.642502632301,3.10787965231,0.4582599913,-3.59864107421
-2.67279644868,2.2504787642,7.45055252586,3.89003381936
1.12690973494,4.92307787608,6.22284506043,3.93870871292
2.56661591856,-7.18432301203,-0.86486240501,0.107383606481
1.51632210218,-1.13172390015,0.897430129554,1.11605850005
-1.5739717142,13.2308752117,7.26972266412,5.76473339361
-0.404265530582,3.29347432362,4.34201519868,-0.966591712828
5.29544065304,0.556073435502,-4.67569226676,3.57208318074
-1.54485316334,2.20867254739,4.51660026781,6.5707580743
-1.18514697972,-11.2187283407,2.54889280237,2.02943296786
-2.4554407961,11.2138707712,11.6911853369,-1.68189213857
-1.80573461248,4.14646988304,5.6234778715,11.216782755
0.723971571144,1.51906899493,-6.30422959394,10.4554576486
-6.02632224524,-5.63833189319,1.35806294062,-8.07586745788
-6.00661606162,-2.87573278131,9.11035547519,-5.28719256432
-3.006909878,-3.64313366942,-7.29735199025,-4.02851767076
-6.91720369438,-3.61053455754,-4.01505945569,-6.01984277719
-5.28749751076,-2.00793544565,-6.33276692112,-5.01116788363
-0.207791327135,-6.04533633377,-7.25047438656,-0.522492990067
3.95191485648,-28.5127372219,-3.348181852,-0.103818096502
6.61162104011,2.22986189,6.42411068257,-3.18514320294
0.941327223725,28.7924610019,7.67640321713,12.2135316906
7.17103340734,-0.58493988623,-1.74130424831,8.52220658419
14.080739591,11.9476592257,-4.95901171374,10.3308814778
3.13044577458,12.2302583375,3.95328082082,5.61955637131
2.7501519582,17.5628574494,3.88557335538,10.3782312649
-5.09014185818,-15.6445434387,-2.37213411005,-4.46309384156
-3.64043567456,-20.2519443268,-4.73984157549,-15.374418948
-4.75072949094,-6.15934521493,1.31245095907,-3.23574405443
-5.15102330731,22.483253897,2.61474349364,10.8929308391
-5.53131712369,-27.9041469912,-9.8229639718,-14.0583942673
-3.41161094007,-22.9715478793,-3.72067143724,-7.25971937374
-1.68190475645,19.3710512326,-6.03837890267,4.49895551982
-1.41219857283,-11.6163496555,-5.35608636811,-0.892369586614
2.45750761079,-9.23375054362,-4.30379383355,-7.13369469305
7.37721379441,21.4988485683,5.41849870102,8.04498020051
2.14691997803,24.8114476801,5.51079123558,10.1436550941
-1.16337383835,-11.315953208,-1.46691622986,-2.16767001236
0.576332345267,-1.04335409608,-2.8546236953,-8.7189951188
-10.6639614711,6.2792450158,-2.74233116073,-1.39032022523
-7.37425528749,-15.5881558723,-4.33003862617,-5.37164533167
-4.80454910387,-13.6955567604,-5.96774609161,-13.0129704381
-2.65484292025,11.1270423515,-1.74545355704,-2.59429554454
-10.4051367366,4.16964146334,2.83683897752,-8.74562065098
-5.10543055301,2.77224057522,-2.53086848792,-11.8569457574
-3.58572436939,14.6548396871,-2.12857595335,0.0117291361494
-3.83601818577,7.10743879899,-1.70628341879,0.84040402971
-4.83631200215,-11.3599620891,-3.62399088423,-7.96092107672
4.24339418147,-7.09736297724,-0.141698349662,1.61775381684
-0.746899634913,-18.6847638654,-0.499405815099,-6.5835712896
2.61280654871,13.0678352465,-2.12711328054,-4.77489639603
1.65251273233,-1.00956564159,-0.0948207459724,-11.0562215025
7.51221891595,2.65303347029,-1.33252821141,4.70245339109
5.65192509957,-6.70436741782,1.57976432315,-1.28887171534
7.06163128319,6.98823169406,1.19205685772,-7.01019682178
4.96133746681,10.2208308059,2.08434939228,4.00847807178
1.01104365043,-13.6365700822,-5.20335807316,3.02715296535
-5.77925016595,7.85602902971,4.89893446141,-7.30417214109
0.390456017671,-18.7713718584,-2.98877300403,-9.35549724753
6.33016220129,4.09122725348,0.943519530534,1.41317764604
1.83986838491,16.6438263654,-0.244187934903,-0.978147460399
0.149574568532,-4.98357452275,-8.16189540034,-3.79947256684
-3.76071924785,-15.6509754109,-10.2796028658,-13.9407976733
-2.33101306423,-0.418376298981,-3.68731033121,-7.64212277971
-1.17130688061,-8.20577718709,-0.0950177966497,-11.0134478861
0.708399303014,-11.2131780752,-5.48272526209,1.94522700742
-0.111894513368,-16.2305789633,-7.87043272752,-5.02609809902
6.92781167025,10.8320201486,-5.72814019296,12.5825767945
0.137517853873,-0.575380739559,1.6041523416,-0.918748311891
3.48722403749,-0.702781627675,-1.46355512383,-4.56007341833
4.49693022111,-0.130182515793,-3.70126258927,-8.18139852476
1.70663640473,-21.5475834039,-0.708970054706,-3.0427236312
2.95634258836,-11.144984292,-0.686677520143,1.06595126236
-0.143951228023,0.557614819863,-5.31438498558,-1.12537384407
5.2357549556,-9.68978606825,-4.73209245102,-13.1466989505
3.61546113922,6.55281304363,2.53020008355,-1.72802405695
-1.73483267716,11.7554121555,-5.62750738189,6.97065083662
-0.205126493547,3.4780112674,-15.6252148473,-0.770674269821
2.05457969007,3.13061037928,-2.12292231276,-5.44199937626
1.94428587369,-11.4067905088,-2.0806297782,-5.53332448269
7.32399205731,-10.4141913969,-11.6483372436,-2.66464958913
5.45369824093,8.86840771494,-7.55604470907,-1.81597469557
9.41340442455,7.59100682682,-4.18375217451,0.502700197998
8.20311060818,4.4236059387,-3.18145963995,2.45137509156
3.5128167918,-18.8337949494,-2.59916710538,-9.17995001488
2.08252297542,-12.1111958375,-3.67687457082,-5.29127512131
-2.02777084096,-2.50859672564,-2.04458203626,-4.33260022775
-3.72806465734,-0.795997613761,6.71771049831,-2.31392533419
-3.11835847372,-16.8133985019,-4.56999696713,-7.19525044062
-3.31865229011,-6.02079938999,-2.04770443257,-5.60657554706
-5.21894610648,-12.1582002781,-0.0154118980035,-4.05790065349
-8.61923992286,3.16439883378,9.41688063656,2.24077424007
-3.24953373924,1.32699794566,6.66917317112,-1.34055086637
-5.45982755562,-6.04040294245,9.03146570569,-0.931875972805
-7.270121372,0.552196169432,2.91375824025,-3.15320107924
-4.74041518838,-19.2852047187,-6.94394922519,-6.07452618568
-6.50070900476,1.1273943932,2.34834330938,-0.695851292114
-8.22100282114,3.68999350508,5.25063584394,-4.82717639855
-4.38129663752,-15.827407383,-0.517071621497,-4.44850150499
-4.4715904539,14.5151917289,1.45522091307,0.380173388576
-0.46188427028,1.40779084073,-1.41248655237,2.60884828214
3.62782191334,5.62038995262,-2.24019401781,4.2275231757
0.76752809696,-4.4870109355,2.83209851676,12.7861980693
3.55723428058,-15.4044118236,4.26439105132,10.3448729628
-4.6630595358,-2.56181271173,5.44668358588,-9.3264521436
-0.103353352177,16.2007864002,9.64897612045,15.01222275
-2.93364716856,10.453385512,-0.148731344991,6.54089764352
-8.39394098494,2.10598462393,2.17356118957,-9.73042746292
-7.65423480132,-7.09141626419,3.98585372414,-4.16175256935
-6.1945286177,-9.51881715231,2.4881462587,0.0169223242119
-0.424822434081,-5.14621804042,1.50043879326,0.925597217774
6.52488374954,5.46638107146,0.522731327826,1.48427211134
0.244589933161,20.5189801833,6.50502386239,9.5329470049
2.08429611678,-0.838420704771,5.16731639695,11.6116218985
6.3740023004,9.61417840712,0.629608931516,12.530296792
9.26370848402,3.756777519,2.23190146608,11.0089716856
4.41341466764,37.9393766309,7.06419400064,15.5876465792
3.47312085126,8.40197574277,6.4564865352,10.0463214727
9.48282703488,25.1145748547,8.19877906977,20.7749963663
-16.3656140988,-28.3882703488,1.71345203488,-11.2014898256
-14.799194487,-34.6752894674,0.480786943782,-2.4466582929
-17.9327748752,-9.73230858588,9.92812185268,-4.07182676021
-14.7363552634,-5.19932770439,5.20545676158,-14.9869952275
-14.4799356517,-27.2663468229,-3.21720832952,-14.8221636948
-14.1635160399,-19.5833659414,3.44012657938,-0.747332162153
-14.6370964281,2.48961494004,7.20746148828,1.49749937053
-17.1106768163,-22.8374041785,1.37479639718,-15.4476690968
-16.9542572045,-19.314423297,3.33213130608,-13.3628375641
-12.1378375927,-1.64144241553,5.49946621498,-7.57800603141
-7.3414179809,-19.7084615341,-6.62319887612,-5.73317449872
-4.00499836911,-10.3554806526,-0.585863967224,0.471657033966
-2.16857875732,-13.7524997711,0.351470941675,-8.37351143335
-2.62215914553,-7.14951888962,-4.95119414942,-10.6186799007
-2.63573953373,-13.8965380081,-4.13385924053,-13.353848368
-4.95931992193,-6.33355712667,-6.99652433163,-0.759016835291
-5.46290031014,-13.0405762452,-4.75918942273,-9.8441853026
-0.376480698349,-10.3475953637,0.998145486174,-2.06935376992
-1.04006108656,7.35538551776,2.80548039507,-6.77452223723
-5.73364147477,-14.4916336008,-3.83718469603,-9.79969070454
-11.487221863,-8.14865271928,-3.43984978713,-12.7448591719
-9.89080225118,3.2843281622,-0.272514878228,-14.0500276392
-3.51438263939,-0.492690956322,-3.22517996933,-7.30519610648
-2.18796302759,-10.5197100748,-0.13784506043,-10.4903645738
-0.591543415805,-13.3367291934,-7.30051015153,-7.95553304111
0.224876195989,-5.72374831189,-4.64317524263,0.109298491574
2.44129580778,6.02923256959,4.72415966627,-2.11586997574
3.72771541957,21.9822134511,4.92149457517,4.10896155695
7.53413503136,21.4851943325,-0.991170515933,11.3237930896
1.15055464316,8.28817521402,5.75616439297,0.978624622319
2.89697425495,8.48115609549,-3.87650069813,-2.84654384499
-1.42660613326,-0.265863023025,-2.78916578923,-4.82171231231
0.409813478538,3.97711785846,3.01816911967,-5.14688077962
3.86623309033,-4.20990126007,-1.79449597143,-22.8120492469
4.70265270212,19.0530796214,3.70283893747,7.70278228575
3.67907231391,20.3360605029,7.90017384636,12.9476138184
3.73549192571,-4.27095861564,-3.86249124474,2.57244535112
3.8719115375,-1.12797773416,-6.67515633584,-3.00272311619
1.84833114929,12.4750031473,-6.50782142694,3.5521084165
7.02475076108,13.3379840288,-2.10048651804,4.03693994918
15.3211703729,29.8309649103,4.79684839086,17.0317714819
15.2375899847,36.8439457917,4.72418329976,17.4766030146
7.33400959646,-3.91307332677,0.341518208661,-1.71856545276
8.04042920825,8.50990755471,6.21885311756,-2.12373392007
10.39684882,-2.28711156382,-3.08381197354,6.02109761261
9.06326843184,6.48586931766,-4.20647706464,1.3159291453
5.66968804363,-1.88114980086,-1.23914215574,5.84076067799
4.11610765543,1.69183108061,0.328192753159,6.10559221067
2.78252726722,5.7048119621,2.91552766206,11.3004237434
0.59894687901,13.5877928436,5.01286257096,9.23525527605
1.2553664908,11.710773725,0.270197479857,4.60008680873
2.7817861026,27.4137546065,8.53753238876,12.5049183414
7.50820571439,22.976735488,2.58486729766,14.8397498741
-0.625374673818,-10.6402836305,-1.72779779344,-7.65541859321
-3.02895506203,18.212697251,-0.150462884545,6.25941293948
1.42746454977,-4.59432186756,-1.22312797565,1.66424447216
4.47388416156,3.66865901391,-2.83579306675,-1.38092399515
1.38030377335,-4.04836010461,2.43154184215,-0.146092462463
8.71672338514,-2.04537922313,-5.82112324895,3.73873907022
9.57314299693,4.53760165835,0.886211659953,8.33357060291
10.1695626087,9.07058253983,-2.71645343115,12.2384021356
9.79598222052,20.0835634213,-0.419118522248,12.7632336683
14.2724018323,12.4165443028,3.86821638665,18.028065201
17.8088214441,12.0695251843,6.34555129555,15.1128967337
13.9752410559,7.95250606574,1.44288620445,3.76772826634
9.42166066769,17.4654869472,-5.97977888665,16.632559799
6.63808027948,4.42846782869,-2.41244397775,7.12739133172
8.81449989128,-2.07855128983,-2.83510906885,6.2622228644
10.7509195031,19.6644295916,-2.70777415995,15.5270543971
5.92733911486,-0.462589526876,-0.210439251052,1.39188592977
8.81375872665,-5.6496086454,-2.13310434215,6.63671746246
7.84017833845,2.29337223608,-1.86576943325,11.8615489951
9.05659795024,4.72635311756,-0.938434524353,12.3363805278
9.55301756203,14.669333999,2.18890038455,11.1912120605
6.11943717382,7.06231488051,0.976235293446,7.57604359321
6.13585678562,12.195295762,1.49357020234,10.3608751259
4.89227639741,14.9382766435,-3.94909488876,5.21570665858
4.4086960092,-17.3187424751,-7.23175997986,0.960538191264
7.63511562099,-13.1457615936,-4.19442507096,1.52536972395
9.43153523279,6.7172192879,-0.487090162057,3.15020125664
9.32795484458,23.0702001694,1.47024474684,7.27503278932
7.47437445637,25.3231810509,3.74757965574,16.809864322
6.23079406816,2.11616193233,2.44491456464,5.0246958547
6.17721367996,13.0791428138,6.08224947354,15.9195273874
6.51363329175,-8.57787630471,-3.13041561756,-0.965641079931
5.45005290354,15.4651045768,2.90691929134,7.57919045276
6.19647251533,6.75808545824,2.81425420024,9.94402198544
3.92289212713,10.7310663397,1.62158910914,8.20885351813
0.139311738923,-1.2059527788,3.22892401804,-2.30631494919
3.25573135071,12.5570281027,4.09625892694,7.2285165835
9.27215096251,-5.93999101585,-4.62640616416,4.76334811619
8.8985705743,7.84298986563,-2.67907125526,7.16817964887
8.35499018609,29.8059707471,2.62826365364,18.2430111816
6.99140979788,-1.06104837142,-8.25440143746,9.31784271425
2.59782940968,-16.7580674899,-3.65706652856,-0.907325753067
6.40424902147,1.53491339154,-1.50973161966,-1.97249422038
3.47066863326,-1.13210572698,1.58760328923,11.5423373123
4.14708824505,-5.1091248455,-1.92506180187,6.27716884499
5.67350785685,-2.88614396402,-0.207726892966,-0.167999622321
-0.310072531363,-10.7331630826,1.25960801593,-7.26316808963
-1.55365291957,26.4298177989,9.48694292483,8.35166344305
-3.57723330778,2.17279868041,-2.81572216627,2.84649497574
-5.33081369598,-24.7442204381,-10.2383872574,-11.9186734916
-4.85439408419,-7.07123955664,-1.25105234847,-1.66384195889
-5.0079744724,-12.3282586752,-1.66371743957,2.0809895738
-3.6315548606,9.63472220632,-5.50638253067,-2.82417889352
-4.07513524882,6.5677030878,-2.33904762177,-3.07934736083
-3.77871563702,-10.0293160307,0.33828728713,-8.48451582814
-7.97229602523,-5.62633514925,-0.934377803971,-9.15968429546
-5.47587641343,-0.673354267772,0.242957104929,-3.09485276277
-5.10945680165,-17.0003733863,-6.10970798617,-8.93002123009
-2.11303718985,15.8526074952,0.707626922728,1.9648103026
-3.68661757806,10.4855883767,6.44496183163,-8.98035816471
-8.35019796627,-4.47143074186,1.63229674053,0.174473367973
-6.26377835447,-14.1584498604,-0.890368350574,-2.71069509934
-10.1473587427,-20.9654689789,-1.97303344167,-11.2158635667
-9.33093913089,-1.27248809743,-3.67569853277,-10.311032034
-11.8545195191,-20.2595072159,0.881636376124,-15.9962005013
-10.4580999073,-16.6665263345,-3.90102871498,-14.9813689686
-16.0816802955,-4.513545453,1.36630619392,-11.2365374359
-19.1552606837,-2.98056457152,5.78364110282,-15.8017059032
-12.3088410719,-18.94758369,-6.86902398828,-21.3568743705
-17.1124214601,-28.8946028086,3.27831092062,-28.6820428378
-14.8160018483,-19.4916219271,2.55564582952,-12.9972113052
-14.5695822365,-9.88864104561,5.81298073842,-16.6023797725
-12.7031626248,-10.7256601641,8.56031564732,-6.57754823979
-5.18674301296,-27.0226792827,0.24765055622,-4.2827167071
-7.52032340117,0.0803015988276,6.29498546512,-3.17788517442
36.3878966693,0.684982953073,-10.18681091,13.6431602413
35.9119362148,1.51390299796,-15.5609882069,18.1172174571
27.0459757602,-13.8571769572,-17.8751655037,8.24127467292
