8.44882994186,-0.674912790681,-3.25057776163,-1.41506177325
0.728316871915,-0.155681880591,-2.90535212759,-4.09330883194
1.39780380196,-4.5864509705,-2.23012649354,-7.28155589063
-2.14270926799,-15.2372200604,-3.9649008595,-10.0098029493
-0.383222337936,-6.55798915032,-2.54967522547,-3.50805000801
-2.78373540789,-3.01875824024,-1.89444959142,1.3337029333
0.405751522165,2.25047266985,0.730776042619,1.24545587461
5.60523845221,-2.10029642005,-0.963998323336,-3.03279118407
0.184725382263,-10.62106551,0.361227310703,-7.57103824276
2.83421231231,-7.95183459987,2.15645294475,-5.38928530145
2.76369924236,-1.15260368978,1.71167857879,-2.64753236014
-0.396813827589,0.6666272203,3.10690421283,-5.08577941883
-0.807326897542,-5.2841418696,1.05212984687,-7.63402647752
-6.49783996749,-12.6249109595,-0.99264451909,-11.8622735362
-6.65835303745,-7.29568004943,-0.33741888505,-7.7405205949
-12.0988661074,2.59355086066,0.377806748991,-3.64876765359
-0.509379177347,4.48278177075,1.79303238303,-3.54701471228
-3.6698922473,-3.26798731916,1.33825801707,-5.40526177096
-5.30040531725,-4.61875640907,2.72348365112,-5.47350882965
-0.690918387198,1.21047450102,4.56870928516,-1.01175588834
-11.9114314571,3.56970541111,5.2839349192,-3.12000294703
-8.5919445271,5.0689363212,6.38916055324,-3.22825000572
-11.5724575971,-1.93183276871,4.49438618728,-3.61649706441
-7.422970667,-5.58260185862,2.57961182133,-5.4547441231
-9.62348373695,0.746629051464,4.23483745537,-3.98299118179
-4.4739968069,0.485859961555,1.61006308941,-3.94123824047
2.78549012315,-0.174909128356,-1.38471127655,-2.60948529916
0.894977053198,-4.38567821826,-0.729485642511,-5.80773235785
-9.72553601675,-8.50644730818,-0.674260008469,-10.5559794165
-11.4560490867,-4.91721639808,0.380965625573,-8.59422647523
-7.21656215665,1.532014512,3.67619125961,-2.18247353392
-7.62707522661,-0.518754577912,3.48141689366,-4.93072059261
-4.05758829655,1.48047633218,3.4466425277,1.1810323487
6.8218986335,9.46970724227,6.73186816174,14.59278529
4.86138556354,7.82893815236,11.0570937958,14.0945382313
-3.58912750641,6.96816906245,6.77231942982,0.586291172636
8.20035942364,0.657399972537,-4.73245493614,-4.20195588605
2.26984635369,-4.69336911737,-3.8172293021,0.849797055258
-4.67066671626,-1.13413820729,0.257996331948,3.79154999657
-4.03117978621,1.6750927028,-1.16677803401,2.58330293788
6.35830714384,6.1043236129,-0.461552399971,8.18505587919
6.50779407388,15.753554523,0.0536732340697,13.0568088205
9.28728100394,9.66278543307,-0.721101131887,9.69856176181
7.85676793399,0.572016343162,-0.0458754978463,5.69031470312
8.98625486404,5.08124725326,-0.370649863806,10.2720676444
10.2757417941,9.98047816334,-0.475424229764,14.1338205857
10.6452287241,10.0597090734,-0.450198595725,9.65557352706
1.96471565419,-1.59106001647,-3.21497296168,2.36732646837
-9.06579741577,-11.1718291064,-4.16974732764,-3.11092059032
-4.10631048571,-3.78259819629,-4.18452169359,-0.14916764901
0.733176444337,-3.9933672862,-5.28929605956,1.1425852923
-2.33733662562,-4.25413637611,-2.87407042551,-4.55566176639
-3.43784969557,-3.28490546603,-3.22884479147,-3.64390882508
-1.09836276552,-3.15567455594,-3.04361915743,-1.08215588377
3.18112416453,0.493556354151,-1.46839352339,1.61959705755
6.26061109458,8.62278726424,0.0568321106512,9.70134999886
3.35009802462,8.49201817434,-0.787942255309,9.74310294017
3.75958495468,4.46124908442,-1.54271662126,8.89485588148
-2.35092811527,-0.269520005488,-2.62749098722,3.89660882279
-3.36144118522,1.3997109046,-0.962265353184,3.1783617641
-4.02195425517,6.28894181469,1.11296028086,5.17011470541
-0.182467325125,8.68817272478,0.678185914901,6.30186764672
2.17701960493,5.83740363487,-1.34658845106,7.10362058804
-4.80349346503,5.37663454496,-1.05136281702,6.82537352935
3.50599346503,6.59586545505,-0.826137182976,7.75712647066
10.8954803951,8.55509636514,-3.52091154893,8.42887941197
2.70496732512,8.11432727523,-4.14568591489,8.11063235328
2.02445425517,4.70355818532,-2.90046028085,2.83238529459
-0.396058814782,1.92278909541,-2.76523464681,1.5741382359
-1.52657188472,4.82202000549,-0.860009012769,4.63589117721
5.17291504532,7.17125091558,-0.784783378727,6.27764411852
1.28240197538,10.0504818257,-0.759557744685,5.62939705983
0.531888905418,5.09971273576,1.12566788936,4.59115000115
1.98137583546,-1.60105635415,-1.0591064766,2.78290294246
5.39086276552,-3.75182544406,-3.82388084256,2.59465588377
5.49034969557,3.85740546603,-2.53865520852,8.24640882508
6.37983662562,7.30663637612,-1.95342957448,8.95816176639
10.7693235557,0.795867286208,-1.87820394044,5.3299147077
4.27881048572,-5.6149018037,-2.10297830639,4.79166764901
7.98829741577,-7.16567089361,-1.70775267236,0.873420590324
4.51778434582,-5.96643998352,-2.15252703831,-3.35482646837
-3.65272872413,-3.29720907343,-5.09730140427,-5.66307352706
-5.31324179409,-6.85797816335,-4.17207577023,-8.35132058575
-0.983754864043,-8.07874725325,-1.52685013619,-5.01956764443
-1.84426793399,-5.24951634317,-2.91162450215,-4.40781470312
4.69521899606,2.53971456693,-2.67639886811,0.64393823819
7.52470592612,8.26894547702,0.388826765935,7.1856911795
7.71419285616,3.7381763871,-0.185947600021,5.16744412081
5.36367978621,-4.34259270281,-3.40072196598,-1.29080293788
5.96316671626,-1.11336179272,-0.26549633194,1.41095000343
9.59265364631,3.25586911738,0.0997293021028,3.93270294474
-1.63785942364,5.32510002746,0.394954936146,4.05445588606
4.55162750641,3.75433093755,0.670180570185,6.44620882737
4.60111443646,1.44356184764,1.97540620423,4.20796176868
11.5506013665,0.192792757727,2.41063183827,2.13971470999
12.1700882966,3.40202366782,0.965857472307,0.711467651301
9.96957522661,7.73125457791,0.341083106352,7.18322059261
8.86906215666,4.450485488,3.72630874039,7.18497353392
3.15854908671,-2.22028360191,3.24153437443,0.716726475233
4.35803601675,-0.101052691825,2.81676000847,3.27847941655
-0.902477053198,2.26817821827,0.611985642518,1.65023235786
0.537009876854,2.55740912836,0.527211276556,-0.928014700832
6.0964968069,-1.77335996155,1.8524369106,-2.56626175952
5.26598373696,-1.89412905146,3.69766254464,-2.77450881821
1.145470667,-4.76489814137,-0.187111821317,-2.0827558769
-0.725042402955,1.43433276872,1.24811381272,-1.42100293559
0.634444527102,0.953563678806,-1.33666055324,-2.33924999428
-7.86606854285,-2.61720541111,-1.64143491919,-2.36749705297
-2.2465816128,-8.58797450102,-2.70620928515,-4.51574411166
-5.93709468275,-3.92874359093,-0.580983651111,-3.51399117034
-6.7776077527,3.52048731916,2.57424198293,-3.79223822903
0.841879177344,1.02971822925,0.459467616973,-4.96048528772
2.15136610739,-1.39105086066,-0.965306748985,-2.85873234641
4.00085303745,-3.64181995057,1.47991888506,-1.7469794051
-0.679660032503,0.99741095952,2.62514451909,-0.525226463789
3.35982689755,-4.11335813039,0.870370153138,-2.80347352248
-5.91068617241,0.0158727796952,1.60559578718,-2.56172058117
-7.34119924236,-7.17489631021,1.66082142122,-7.68996763986
-6.91171231231,-11.3156654001,0.466047055263,-9.36821469854
-9.42222538226,-8.44643449003,0.651272689305,-9.82646175723
-11.9027384522,-1.77720357994,0.876498323349,-4.66470881592
-3.67325152216,-4.35797266986,-1.57827604262,-7.75295587461
-4.92376459212,-3.78874175977,1.04694959143,-4.5212029333
-7.10427766206,-8.93951084968,3.40217522547,-6.84944999199
-12.944790732,-4.10027993959,3.38740085951,-5.64769705068
-11.815303802,2.2289509705,2.16262649355,-6.38594410937
-11.1258168719,-0.551818119406,0.377852127596,-8.76419116806
-10.3363299419,1.35741279068,0.963077761633,-3.78243822675
-9.81561046511,-2.31367369185,7.92967296511,-4.66569767441
-7.13336906015,-0.273727797095,7.58342319401,-5.90074943348
-8.53112765519,4.97621809766,7.8171734229,-4.56580119254
-9.83888625022,7.94616399241,8.2909236518,-1.82085295161
-4.35664484526,1.10610988717,6.93467388069,-4.41590471067
-6.45440344029,-6.45394421808,5.40842410959,-8.19095646974
-6.60216203533,-7.81399832333,2.33217433849,-8.0660082288
-2.00992063037,0.405947571431,2.98592456738,-2.97105998786
-3.56767922541,-3.70410653382,2.88967479628,-7.95611174693
-0.835437820453,-12.8041606391,-1.08657497483,-11.241163506
0.956803584515,-14.3442147443,-2.03282474593,-14.3062152651
-3.26095501053,-10.3642688496,0.0709254829635,-9.35126702412
-1.28871360556,-8.60432295481,1.26467571186,-4.66631878319
-2.4664722006,-3.68437706005,-0.311574059244,-6.61137054225
-6.61423079563,-10.2144311653,-1.81782383035,-7.75642230131
-3.75198939068,-11.2244852705,-1.50407360145,-7.13147406038
-6.46974798571,-2.35453937579,-2.36032337256,-2.59652581944
6.57249341925,7.52540651896,-1.50657314366,6.04842242149
7.20473482421,6.76535241371,-0.282822914764,6.42337066243
-3.18302377083,-2.37470169153,-4.23907268586,1.41831890336
-3.06078236586,-6.66475579678,-3.84532245697,0.723267144298
0.161459039104,-5.37480990202,-3.03157222808,-0.761784614764
0.173700444058,0.655135992725,-2.01782199918,1.56316362617
1.33594184903,1.88508188749,-1.13407177028,1.42811186711
5.47818325399,0.345027782234,-2.36032154139,2.51306010804
-1.25957534105,-1.73502632301,-3.86657131249,1.64800834898
8.53266606391,0.724919571745,-5.0028210836,5.24295658991
-0.845092531134,9.14486546649,-2.7090708547,9.74790483085
8.54714887383,9.59481136125,-1.6253206258,10.0128530718
4.2893902788,-0.135242744,-4.39157039691,4.28780131272
-1.40836831624,-4.98529684924,-4.04782016801,-2.01725044634
-2.04612691128,0.604649045505,-4.37406993911,1.77769779459
8.41611449369,0.844594940259,-3.76031971022,3.92264603553
4.44835589865,2.90454083502,-3.79656948132,4.85759427646
3.02059730361,0.624486729765,-1.59281925243,6.7325425174
11.5928387086,-1.63556737547,-2.94906902353,1.07749075834
4.91508011353,3.79437851928,0.254681205362,3.15243899927
7.8773215185,8.50432441403,2.85843143426,8.97738724021
7.31956292345,2.27427030878,-1.84781833685,5.82233548114
3.95180432842,-1.57578379646,-1.44406810795,8.54728372208
1.43404573338,-4.14583790171,0.649682120948,4.14223196301
0.166287138345,0.164107993041,1.35343234984,0.44718020395
2.3385285433,7.3640538878,1.22718257874,4.54212844488
-1.46923005173,6.04399978255,0.410932807637,4.55707668582
6.89301135323,-0.106054322699,-0.205316963471,4.13202492676
-0.0247472418123,-0.976108427938,-0.0415667345733,3.45697316769
-2.66250583684,-5.22616253319,-3.02781650568,-0.278078591371
3.75973556811,2.32378336156,-4.85406627678,-2.05313035044
3.32197697309,0.803729256317,-3.55031604788,-1.4981821095
0.714218378038,-2.30632484893,-3.62656581899,-2.93323386857
0.406459783007,-3.95637895418,-2.7228155901,-4.00828562763
1.93870118797,-0.606433059424,-0.239065361198,-1.43333738669
6.66094259293,-0.566487164666,0.2846848677,2.45161085424
5.4531839979,-0.986541269915,-0.461564903406,0.0965590951764
1.46542540285,-3.17659537516,0.0821853254893,-3.34849266389
-5.88233319218,-3.98664948041,1.45593555439,-4.42354442295
-3.71009178722,-5.83670358566,0.969685783282,-5.96859618202
-1.41785038225,-0.456757690903,1.18343601218,-1.77364794108
1.7143910227,3.18318820385,2.97718624107,7.50130029986
2.23663242767,1.86313409861,1.20093646997,-2.35375145921
-0.971126167373,2.69307999335,1.07468669887,-1.12880321827
-4.1388847624,3.36302588812,0.638436927762,1.72614502266
2.61335664256,10.0229717829,1.67218715666,4.8510932636
1.90559804751,14.6929176776,2.97593738555,13.0760415045
1.91783945248,5.28286357237,-0.120312385548,5.51098974547
-1.56991914256,1.70280946713,0.583437843346,2.62593798641
-1.3376777376,5.45275536188,0.72718807224,11.8808862273
2.69456366736,5.78270125663,0.110938301139,1.63583446828
1.96680507233,6.90264715139,0.564688530034,1.25078270921
3.86904647729,3.46259304613,-0.0915612410718,1.78573095015
1.42128788225,-0.987461059107,-1.71781101217,2.10067919108
2.16352928722,-2.21751516435,-1.57406078328,-0.434372567979
3.30577069218,6.2924307304,-1.01031055438,9.33057567296
3.31801209714,8.75237662515,-0.326560325488,3.33552391389
5.1102535021,5.69232251991,-1.05281009659,-1.70952784517
1.14249490706,0.482268414664,-0.619059867695,1.16542039576
8.79473631203,7.36221430941,2.8946903612,8.5203686367
9.93697771699,12.6121602042,3.6484405901,12.5153168776
4.91921912195,13.3321060989,1.48219081899,14.2302651186
2.37146052691,1.10205199367,-1.12405895211,0.0352133595043
-3.80629806813,-3.52800211157,-0.580308723213,-6.73983839956
-8.81405666317,-3.54805621682,-0.706558494319,-9.89489015862
-6.7418152582,-0.508110322065,-1.90280826542,-5.24994191769
-4.96957385324,0.251835572686,-1.14905803653,-0.534993676751
-2.97733244827,0.20178146744,-0.605307807633,-3.22004543582
-7.95509104332,-7.2682726378,-1.65155757873,-8.65509719488
-12.7928496383,-7.17832674305,-1.48780734984,-9.04014895394
-1.77060823339,1.3816191517,-1.49405712094,-2.80520071301
-6.07836682843,-6.59843495355,-2.67030689205,-9.05025247207
-6.13612542347,-2.97848905879,-0.446556663152,-6.45530423114
-5.4838840185,-4.67854316404,-0.462806434258,-4.7403559902
-4.56164261354,-1.03859726928,1.58094379464,-0.515407749266
-2.46940120858,6.54134862547,2.41469402354,3.20954049167
-2.99715980361,2.74129452022,1.25844425243,-0.0555112673956
-0.334918398657,2.56124041498,-0.207805518672,-2.07056302646
-0.352676993687,-3.29881369027,-1.42405528978,-2.81561478552
-2.62043558873,0.631132204486,-0.120305060882,-0.440666544588
-1.22819418376,11.4010780992,2.44344516801,6.79428169635
5.23404722119,12.991023994,2.69719539691,9.35922993728
-1.06371137385,7.56096988874,2.75094562581,3.05417817822
-5.43146996888,8.4709157835,3.4746958547,6.97912641916
3.40077143608,4.14086167825,1.5384460836,4.83407466009
11.813012841,6.590807573,1.5021963125,5.76902290103
0.485254246007,10.5707534678,1.55594654139,9.45397114196
0.247495650969,6.97069936252,0.329696770288,6.8389193829
1.21973705593,-1.74935474274,0.323446999184,-0.256132376166
-0.2980215391,-1.58940884798,-0.18280277192,1.61881586477
4.11421986586,5.85053704677,1.63094745698,4.6337641057
-1.46353872919,5.45048294152,2.56469768587,4.58871234664
-1.24129732422,-1.36957116373,0.798447914767,2.12366058758
3.37094408074,0.260374731028,2.89219814366,4.73860882851
5.46318548571,-0.439679374213,2.49594837256,4.37355706945
10.6954268907,6.36026652054,0.469698601453,8.10850531038
13.8076682956,6.34021241529,0.463448830349,8.19345355132
5.89990970059,-1.52984168996,-1.96280094075,4.45840179226
1.86215110556,-6.9898957952,-1.53905071186,-2.85664996681
2.79439251051,-4.37994990045,0.974699517039,-5.65170172587
5.32663391547,0.759995994304,1.02844974594,0.803246515063
1.72887532044,1.20994188906,0.302199974831,-3.441805244
-1.4388832746,-9.47011221619,0.895950203725,-9.97685700307
-8.67664186964,-13.1901663214,0.409700432625,-11.9719087621
-5.33440046467,-16.8502204267,-3.53654933848,-11.2769605212
-7.02215905971,-13.8602745319,-3.08279910959,-9.22201228026
-8.60991765475,-6.53032863717,-0.189048880689,-8.22706403932
-6.18767624978,-10.0203827424,-0.645298651794,-9.48211579839
-14.9154348448,-14.5304368477,-0.881548422898,-13.4871675575
-4.67319343986,-13.9104909529,-0.627798194,-10.4422193165
-1.7809520349,-5.39054505816,1.27595203489,-5.84727107558
-2.96895798318,-0.967478991566,0.999495798311,-1.54964705882
-6.17561650112,-7.42207028264,-1.87421695952,-6.11335828876
-6.26227501908,-8.37666157369,-2.83792971735,-7.47706951871
-2.30893353703,-4.36125286476,-2.16164247518,-4.15078074866
-3.06559205499,2.74415584419,-2.17535523301,0.625508021398
-3.20225057294,2.52956455312,1.50093200916,-0.278203208549
2.61109090911,1.80497326206,1.48721925133,2.2180855615
0.544432391151,-2.25961802901,0.963506493499,2.48437433156
4.4177738732,0.655790679928,-0.340206264329,1.07066310161
14.5211153552,5.11119938887,-0.913919022158,3.29695187166
4.30445683729,5.8166080978,-1.46763177999,4.95324064172
1.19779831934,-4.32798319325,-2.84134453782,-0.62047058823
1.89113980139,-3.49257448432,-1.19505729565,-2.90418181818
6.47448128343,-0.887165775377,-0.608770053477,1.06210695188
3.35782276547,4.14824293355,1.86751718869,3.02839572193
-0.458835752477,5.5836516425,2.03380443086,3.75468449198
-0.395494270429,1.72906035143,1.91009167303,1.34097326204
-7.32215278838,-4.05553093963,2.7463789152,-4.00273796791
-6.62881130633,2.27987776931,2.51266615737,0.813550802144
0.964530175712,4.67528647824,1.08895339954,4.0098395722
3.79787165776,2.99069518718,-0.154759358287,2.65612834225
1.61121313981,2.99610389612,0.0815278838818,2.9624171123
4.76455462186,-1.77848739494,-1.54218487395,3.02870588236
0.317896103894,1.426921314,2.83410236822,-0.28500534759
0.141237585944,6.21233002293,6.04038961039,-4.35871657754
1.87457906799,12.0777387319,7.27667685256,9.11757219252
-2.97207944996,2.8531474408,2.90296409473,7.76386096257
-8.71873796792,-3.06144385025,-2.2507486631,-0.329850267377
-7.15539648587,-2.38603514132,-0.424461420927,-2.86356149732
-2.84205500382,1.21937356762,-1.48817417876,1.00272727273
5.27128647823,-2.81521772344,-3.60188693659,-4.66098395722
8.08462796028,-5.23980901451,-4.64559969442,-3.88469518717
1.37796944232,-8.16440030556,-3.35931245225,-4.95840641711
-7.04868907564,-7.25899159663,-2.36302521008,-6.75211764706
