20.1403161337,18.5679178779,-0.00808866279476,17.1081468023
9.87851981666,7.76102768495,-5.01479814251,10.9648356814
9.29672349959,6.50413749199,-6.72150762223,6.32152456052
3.03492718253,3.94724729903,-6.18821710195,3.84821343961
7.26313086546,9.95035710607,-4.06492658167,4.90490231871
15.6613345484,10.0534669131,-4.94163606139,7.94159119781
13.7395382313,3.72657672015,-5.23834554111,6.33828007691
13.5777419143,8.15968652719,-6.02505502083,6.294968956
12.4159455972,4.71279633423,-5.64176450055,8.2616578351
13.5941492801,9.57590614127,-2.85847398027,8.1583467142
9.55235296306,9.70901594831,-1.29518345999,6.21503559329
7.52055664599,13.2121257554,0.808107060288,11.3317244724
14.5587603289,7.2952355624,-2.10860241943,9.45841335149
5.92696401186,11.1583453694,-2.59531189915,9.17510223059
11.8651676948,11.5514551765,0.0779786211297,11.9917911097
6.05337137773,9.87456498352,-0.638730858591,6.13847998878
1.23157506066,13.7276747906,1.59455966169,3.30516886788
-2.53022125641,11.5507845976,2.05785018197,5.27185774698
4.32798242653,9.82389440464,0.381140702248,6.57854662607
1.86618610946,6.23700421168,-0.425568777471,5.57523550517
-4.25561020761,8.49011401872,-1.68227825719,2.96192438427
-3.38740652467,2.71322382576,-2.86898773691,1.05861326337
-5.37920284174,3.8263336328,-1.10569721663,-0.144697857537
0.0990008411936,2.42944343985,-1.91240669635,-0.878008978441
-0.152795475875,-0.257446753114,-2.04911617607,0.178679900655
-2.90459179294,5.57566305393,0.0241743442111,0.585368779753
-3.70638811,11.398772861,0.86746486449,6.13205765885
-2.23818442707,0.321882668008,-2.46924461523,2.95874653795
6.28001925586,1.05499247505,-1.68595409495,2.18543541705
-0.721777061204,8.86810228209,-0.302663574668,3.14212429614
-2.24357337827,-0.768787910869,-2.93937305439,-3.60118682476
-1.30536969534,2.57432189617,0.133917465891,-0.384497945659
-5.99716601241,-1.43256829679,-0.112792013828,-1.46780906656
-3.76896232947,-1.77945848975,-1.02950149355,-1.18112018747
-5.60075864654,3.33365131729,0.0437890267331,-2.91443130837
-9.60255496361,-2.93323887566,1.17707954701,-3.20774242927
-11.4143512807,0.859870931376,4.84037006729,0.418946449827
-5.87614759774,-5.49701926158,1.30366058757,-3.08436467108
-3.7479439148,-6.17390945454,-1.42304889215,-9.18767579198
-4.84974023187,-20.7307996475,-7.05975837187,-9.94098691288
-3.28153654894,-6.78768984046,-1.45646785159,-2.98429803379
-0.603332866001,-24.3445800334,-7.5131773313,-14.2276091547
-8.40512918307,-20.0114702264,-3.17988681103,-15.2109202756
-4.11692550014,-2.65836041934,1.88340370925,-2.39423139649
-3.6487218172,5.3847493877,5.12669422954,-0.357542517395
-9.49051813427,-3.32214080526,4.31998474982,-7.5808536383
-6.96231445134,0.680969001784,6.3732752701,-3.5341647592
-6.8041107684,-4.62592119117,1.76656579038,-3.7274758801
-9.02590708547,-21.6728113841,-1.93014368935,-10.920787001
-9.89770340254,-5.55970157709,2.65314683093,-6.47409812191
-6.8094997196,-19.5165917701,-5.24356264878,-10.7374092428
-8.07129603667,-15.003481963,-0.550272128505,-5.26072036372
-7.66309235373,-2.48037215597,7.51301839178,-1.58403148462
-5.5248886708,-8.56726234893,7.06630891206,-3.41734260552
-2.12668498787,-10.3541525419,0.599599432337,-5.49065372643
-6.99848130494,-0.281042734849,3.57288995262,-3.56396484733
-4.720277622,-7.93793292781,2.3861804729,-7.20727596823
-15.5420739391,-10.1348231208,0.589470993178,-10.8505870891
-9.30387025614,-14.4117133137,-1.13723848654,-12.70389821
-3.8556665732,-8.46860350669,3.26605203374,-7.59720933094
-4.21746289027,5.48450630036,4.64934255402,-0.31052045184
-5.19925920733,-21.2323838926,-5.0273669257,-11.6438315727
-4.5110555244,-13.0592740856,-0.0240764054215,-2.91714269365
-0.982851841469,-3.80616427852,3.80921411486,0.749546185449
2.10535184147,-1.18305447148,4.95250463514,-0.923764935451
1.4335555244,5.88005533556,7.56579515542,5.45292394365
5.27175920733,-0.346834857401,6.3290856757,1.78961282274
4.41996289026,-14.1637250504,2.10237619598,-6.81369829816
-2.1718334268,0.869384756683,9.09566671626,3.80299058094
0.106370256133,3.16249456372,9.06895723654,8.60967946003
-0.0554260609351,-12.2443956292,3.36224775682,-2.44363166087
-5.327222378,-12.3812858222,1.5755382771,-6.82694278177
2.02098130493,-6.53817601515,2.15882879738,0.0797460973263
1.70918498787,-1.08506620811,6.93211931766,2.21643497642
-1.1826113292,-2.53195640107,5.43540983794,-0.846876144482
-3.66440764627,-4.56884659403,3.90870035822,-3.41018726538
-4.51620396333,-15.175736787,3.9019908785,-8.82349838629
-6.7680002804,-7.80262697995,5.37528139878,-5.88680950719
-6.96979659747,-4.27951717291,3.31857191906,-5.71012062809
-6.93159291453,-9.76640736587,4.34186243934,-9.55343174899
-5.4133892316,-5.88329755883,1.25515295962,-8.8967428699
0.974814451332,-8.97018775179,0.898443479902,-9.0500539908
-0.226981865733,-4.93707794475,5.88173400018,-2.9433651117
-3.5887781828,-11.6039681377,3.79502452046,-5.3566762326
-3.39057449987,-9.71085833067,6.06831504074,-7.15998735351
-4.68237081693,-2.74774852362,3.83160556102,-8.52329847441
-11.324167134,-13.9746387166,0.704896081304,-9.77660959531
-7.39596345106,-12.7015289095,1.99818660158,-7.30992071621
-1.06775976813,-6.9884191025,4.83147712186,-8.06323183712
-1.3595560852,-0.605309295461,4.96476764214,-2.58654295802
-0.671352402267,-12.9721994884,0.398058162426,-9.59985407892
-4.05314871933,3.02091031862,5.73134868271,-6.51316519982
-3.1949450364,-16.9859798743,-1.32536079701,-15.5164763207
-5.12674135347,-11.4128700673,0.297929723265,-12.9697874416
-9.45853767053,-1.82976026026,1.70122024355,-9.88309856253
-6.5403339876,-5.14665045322,-2.14548923617,-4.95640968344
-11.7021303047,2.42645935382,5.80780128411,-2.11972080434
-6.40392662173,0.409569160865,3.21109180439,-4.19303192524
-3.4757229388,-3.82732103209,1.06438232467,-5.80634304614
0.212480744136,0.665788774948,2.95767284495,-1.30965416705
-2.27931557293,3.35889858199,1.80096336523,0.72703471205
-3.21111189,-5.40799161097,-3.07574611449,-4.29627640885
-3.98290820706,-3.69488180393,-1.58245559421,-4.80958752975
-4.18470452413,8.98822800311,1.72083492607,1.81710134934
0.863499158804,-3.57866218985,-6.17587455365,-1.73620977156
6.72170284174,-3.60555238281,-6.29258403337,-3.33952089246
8.68990652467,7.96755742423,3.95070648691,8.39716798663
0.148110207603,6.81066723127,4.52399700719,7.41385686573
-7.87368610946,4.44377703831,-4.31271247253,0.550545744827
-4.32548242653,0.226886845356,-3.16942195225,3.68723462393
-1.3072787436,5.2299966524,-2.12613143197,2.24392350302
0.680924939337,12.0431064594,-0.402840911689,3.96061238212
-1.65087137773,12.2962162665,-5.14955039141,4.83730126122
-0.572667694796,7.21932607352,0.123740128869,3.92399014031
1.52553598814,13.7624358806,2.46703064915,6.52067901941
3.35373967107,1.1855456876,-7.72967883057,1.80736789851
8.041943354,5.96865549464,-5.78638831029,10.0340567776
8.74014703694,2.49176530168,-7.93309779001,9.0607456567
14.2783507199,11.6748751087,-3.79980726973,8.7474345358
15.6865544028,17.9279849158,-3.53651674945,13.1541234149
13.5347580857,13.2210947228,-4.12322622917,13.800812294
12.6429617687,12.5442045298,1.35006429111,18.2275011731
10.0911654516,12.2873143369,-7.63664518861,7.93419005219
12.7093691345,17.2004241439,-7.93335466833,12.6508789313
13.7075728175,9.93353395097,-9.92006414805,10.2875678104
15.5157765004,15.466643758,-6.43677362777,12.6342566895
19.0739801833,18.519753565,-3.00348310749,16.3509455686
11.3521838663,15.1628633721,-9.58019258721,18.3676344477
16.2967260174,-2.85011264535,-0.0785356104698,10.2573510174
14.6333019365,-3.56770806629,-2.96431039416,7.11547713331
12.0098778555,9.37469651277,0.0699148221429,8.76360324918
13.1164537745,-3.57289890817,-2.70585996155,3.82172936505
13.8030296935,5.43950567089,1.46836525476,12.2898554809
18.7596056125,15.34191025,2.20259047106,15.8179815968
10.6861815315,20.414314829,4.27681568737,15.7861077126
15.7427574506,7.62671940808,0.291040903676,13.8142338285
18.9593333696,15.1091239871,3.70526611998,20.0923599444
17.7859092886,-3.5084714338,0.199491336291,13.7404860602
12.1924852076,18.6639331453,6.6537165526,19.0686121761
3.64906112663,5.31633772432,2.2479417689,8.82673829198
6.18563704565,2.76874230338,-0.61783301479,5.96486440785
9.98221296466,1.51114688244,4.66639220152,5.62299052371
-1.51121111632,3.8335514615,3.01061741782,2.58111663958
-2.4446351973,-13.2440439594,-5.41515736587,-6.21075724455
-5.26805927829,-7.67163938038,-2.92093214956,-6.13263112868
-2.50148335927,-2.03923480132,-0.346706933256,-0.774505012818
-9.75490744025,11.0331697777,2.74751828305,4.65362110305
3.14166847877,-6.5844256432,-7.10825650065,-1.71825278108
1.05824439778,-13.0220210641,-6.17403128434,-9.44012666522
3.2348203168,3.14038351492,-3.49980606803,-0.612000549347
0.641396235817,-0.527211906016,-4.19558085173,-1.82387443348
-2.12202784517,-13.584807327,-4.75135563542,-6.68574831762
-5.05545192615,10.9775972521,0.202869580888,-1.20762220175
-7.65887600714,-14.8399981688,-7.15290520281,-11.4294960859
-7.91230008812,-15.4675935898,-4.5186799865,-11.19136997
-10.9557241691,-10.1651890107,-2.71445477019,-14.6332438541
-14.4291482501,-7.42278443165,-0.280229553884,-13.2751177383
-9.18257233107,-13.9903798526,-1.04600433758,-11.6969916224
-2.50599641205,-12.5379752735,-2.46177912127,-13.1388655065
-5.70942049304,-1.14557069447,0.802446095035,-6.52073939068
-13.142844574,-12.6731661154,-4.45332868866,-11.4026132748
-7.356268655,-11.7407615363,-0.569103472353,-10.3344871589
-7.25969273598,-17.7283569573,-2.87487825605,-11.8163610431
-5.76311681697,-3.29595237823,1.09934696026,-4.68823492721
0.793459102049,18.0464522008,10.8635721766,2.13989118866
3.32003502106,-8.53114322011,-4.27220260713,-7.63198269548
-1.29338905992,-24.688738641,-8.68797739082,-10.4038565796
-3.9368131409,-7.56633406198,-5.55375217451,-1.11573046374
4.85976277811,0.296070517075,1.30047304179,-2.14760434787
4.35633869713,-1.71152490386,3.9146982581,-3.40947823201
-1.18708538386,2.8008796752,3.50892347441,-2.40135211614
-8.64050946484,-5.58671574574,-0.986851309286,-8.82322600027
-11.8439335458,-0.174311166682,0.61737390702,-5.8750998844
-9.5073576268,1.83809341238,1.44159912333,-2.46697376854
-12.0407817078,1.95049799144,3.98582433963,-5.48884765267
-6.34420578877,-1.9170974295,2.21004955594,-12.4007215368
-7.67762986975,-4.71469285044,0.644274772247,-8.27259542094
-9.42105395074,-4.98228827138,3.34849998855,-7.36446930507
-7.86447803172,2.32011630768,7.58272520486,-2.0463431892
-6.7579021127,14.6625208867,8.51695042117,4.54178292666
-7.17132619369,-1.5650745342,4.45117563747,-0.380090957471
-2.30475027467,11.8673300449,8.51540085378,7.81803515839
-3.06817435566,1.66973462392,4.54962607009,3.09616127426
-6.25159843664,6.65213920298,3.72385128639,1.79428739013
2.45497748238,6.76454378204,1.7980765027,-0.357586494003
5.3815534014,14.6269483611,6.84230171901,5.27053962187
-3.70187067959,-9.40064705983,-1.87347306469,-7.99133426226
-3.15529476057,8.39175751923,4.15075215162,0.676791853602
-9.14871884155,9.66416209829,6.25497736793,-0.405082030531
-13.8721429225,-13.2934333227,-0.910797415767,-15.1769559147
-7.55556700352,-8.24102874359,-1.15657219946,-11.1388297988
-11.1889910845,-1.48862416453,5.96765301685,-6.45070368293
-11.0624151655,6.82378041453,3.17187823315,-1.36257756706
-12.7658392465,-0.33381500641,-0.00389655054096,0.915548548805
-3.11926332745,4.11858957265,-0.769671334236,4.57367466467
2.30731259156,-0.309005848289,-1.71544611793,-1.48819921946
-2.23611148942,2.59339873077,0.538779098379,4.28992689641
-4.11953557041,-0.584196690166,1.34300431468,3.77805301227
-3.23295965139,5.96820788889,3.12722953099,-0.633820871863
-5.16638373237,-6.99938753205,-4.3885452527,-5.375694756
-2.28980781335,4.55301704701,2.37567996361,2.39243135987
-1.98323189434,13.7654216261,3.17990517991,4.33055747574
-1.49665597532,6.06782620514,-0.625869603782,2.60868359161
-2.4700800563,6.6502307842,-6.01164438747,1.92680970747
-1.76350413729,6.87263536326,-0.427419171168,4.13493582334
-5.76692821827,-7.96496005768,-2.13319395486,-5.14693806079
-4.19035229925,5.14744452138,3.18103126145,-0.518811944923
-9.00377638024,2.26984910044,3.67525647775,1.86931417094
-2.48720046122,-1.7977463205,-0.400518305943,0.0474402868094
-8.62062454221,-1.40534174144,-0.0462930896356,-3.89443359732
-6.47404862319,-0.912937162379,-1.75206787333,0.353692518544
-1.63747270417,2.74946741668,0.192157342979,1.97181863441
-6.40089678516,3.47187199574,0.296382559285,4.96994475028
-2.56432086614,-9.6357234252,-3.56939222441,-4.72192913386
0.28225505288,5.58668115386,-3.3751670081,0.556196982012
1.5788309719,2.14908573292,-1.9309417918,2.49432309788
2.37540689091,13.031490312,4.70328342451,7.38244921375
2.56198280993,1.65389489105,-3.65249135918,6.17057532961
1.14855872894,3.66629947011,-5.08826614288,4.08870144548
6.39513464796,1.40870404917,-1.29404092657,3.04682756135
1.00171056698,5.18110862823,-1.65981571026,3.80495367722
-2.92171351401,3.12351320729,-5.01559049396,1.72307979308
4.13486240501,11.8159177863,1.01863472235,4.91120590895
8.56143832402,-8.14167763459,-3.76714006134,-0.0306679751848
8.25801424304,-2.93927305553,-4.80291484504,-1.09254185931
4.49459016206,0.173131523528,-5.29868962873,-4.22441574345
-0.408833918922,-4.81446389741,-6.06446441242,1.51371037242
5.84774200009,-3.52205931835,-9.35023919612,1.35183648828
9.54431791911,6.62034526071,-4.43601397981,-0.690037395849
9.90089383813,6.46274983977,-6.0717887635,4.08808872002
13.5374697571,-1.06484558117,-6.0975635472,2.90621483589
11.9140456762,5.12755899789,-3.17333833089,9.60434095175
8.40062159518,4.87996357695,-2.90911311459,7.99246706762
10.1571975142,-3.95763184398,-5.79488789828,0.34059318349
5.79377343321,-0.785227264925,-4.10066268197,-0.941280700645
2.05034935223,-6.61282268586,-4.53643746567,-1.91315458478
1.77692527124,6.7495818932,4.55778775064,7.31497153109
2.95350119026,11.1319864723,0.0820129669482,2.77309764695
6.83007710927,3.61439105132,-1.50376181674,0.00122376282525
9.70665302829,5.44679563038,1.22046339956,3.07934987869
6.66322894731,2.35920020944,0.0346886158677,2.68747599456
3.65980486633,-1.9483952115,0.608913832175,1.32560211042
6.57638078534,-12.1459906324,-2.92686095152,-6.03627177371
4.83295670436,-3.18358605338,1.71736426479,-4.85814565784
4.59953262338,1.34881852568,1.3815894811,-2.16001954197
3.31610854239,10.7612231047,3.5458146974,2.66810657389
4.60268446141,-5.4463723162,-0.489960086292,3.23623268976
-0.270739619576,-9.08396773714,4.53426513002,2.92435880562
-1.44416370056,9.50843684192,8.80849034632,5.22248492149
1.67241221846,10.910841421,9.09271556263,7.09061103736
-4.61101186253,-22.796754,-1.04305922107,-6.86126284677
-3.05443594351,-14.9743494209,1.95116599524,-6.84313673091
2.90213997551,-6.57194484183,1.83539121155,2.20498938496
-1.30128410547,-19.1295402628,0.249616427855,-2.13688449917
-4.30470818646,5.41286431629,8.80384164416,0.331241616695
-1.74813226744,0.825268895347,3.45806686047,2.85936773256
6.43449854651,3.56840479652,-0.0992005814005,3.72138081395
5.16754163043,-0.111641440439,7.89052723287,1.07781207082
2.25058471434,7.49831232261,6.73025504715,5.36424332768
-2.97637220175,2.87826608566,4.63998286142,-1.30932541545
-1.70332911783,10.9282198487,5.4597106757,3.48710584142
-1.25028603392,15.5581736117,5.35943848997,7.06353709829
-4.74724295001,-0.791872625203,2.93916630424,-2.65003164485
4.68580013391,-10.7519188622,-1.80110588148,-7.10360038798
6.43884321782,-17.0319650991,-7.60137806721,-11.3071691311
5.08188630173,18.7579886639,3.56834974707,10.2492621258
3.27492938564,1.68794242699,9.05807756134,-0.664306617378
0.21797246956,-9.03210380997,-3.69219462439,-5.60787536051
-0.318984446531,5.07784995308,3.13753318989,2.04855589636
0.964058637383,-3.00219628387,2.90726100416,-2.76501284678
3.3871017213,-8.47224252083,-5.16301118156,-11.1285815899
8.84014480521,6.81771124222,-4.79328336729,-5.82215033305
1.42318788913,2.42766500527,0.346444446983,-1.60571907618
3.73623097304,6.15761876831,0.916172261257,0.180712180689
2.28927405695,-0.962427468639,-1.66409992447,1.11714343756
1.04231714086,1.90752629441,1.61562788981,0.0935746944233
-2.46463977523,19.3474800575,8.89535570408,11.9200059513
1.85840330869,-2.1525661795,-2.95491648165,0.686437208155
-0.838553607398,-2.81261241645,-1.17518866737,-3.96713153498
-9.64551052349,10.5873413466,7.5745391469,-1.83070027811
-6.64246743957,12.6672951096,6.89426696118,3.32573097876
-2.09942435566,-21.9727511273,-1.57600522455,-8.43783776438
-4.35638127175,-7.01279736426,2.95372258972,-5.58140650751
-0.503338187831,7.38715639879,2.253450404,-2.97497525064
0.0597048960808,-3.46288983817,4.07317821827,9.35145600622
-2.52725202001,-8.69293607512,-5.22709396745,-1.58211273691
0.895791063907,10.6270176879,1.87263384682,4.02431851996
5.59883414782,-11.493028549,-2.89763833891,5.26074977683
-0.008122768264,-10.813074786,1.09208947537,-0.262818966308
-1.94507968435,7.51687897707,5.02181728964,3.80361229056
4.11796339956,17.2468327401,5.66154510392,11.4800435474
-0.128993516526,-12.0032134968,-2.31872708181,-0.823525195708
-2.75595043262,0.186740266208,1.83100073247,-2.94709393884
-6.0429073487,21.7766940293,1.84072854674,0.889337318029
-3.16986426479,1.6666477923,-2.07954363899,3.85576857489
0.943178819125,-0.443398444651,-4.29981582472,-13.2078001682
0.636221903038,-16.6934446816,-9.04008801044,-7.54136891137
-1.72073501305,-4.27349091856,-1.85036019617,0.635062345496
1.68230807087,-13.2335371555,-4.52063238189,2.39149360236
-0.21464884522,-11.9335833925,-5.47090456762,2.20792485923
-0.48160576131,19.8163703706,-3.86117675334,4.5043561161
1.60143732261,-6.86367586637,-2.49144893907,-3.86921262704
1.09448040652,-5.16372210332,-5.4617211248,-10.6427813702
-3.57247650957,-17.9437683403,-7.91199331052,-6.9163501133
3.32056657434,-23.9738145772,-11.0422654962,-4.48991885643
5.85360965826,-0.58386081418,-0.862537681975,0.976512400433
4.57665274217,25.1960929489,3.0471901323,5.3129436573
2.05969582608,1.01604671191,-1.36308205343,3.26937491417
6.27273891,-6.53399952504,-2.07335423915,2.45580617103
5.84578199391,1.05595423801,-3.37362642488,5.1922374279
-1.36117492218,1.63590800105,-3.6038986106,-1.69133131523
-5.96813183826,12.0358617641,-3.43417079633,5.11509994163
-13.9150887544,-29.1741844729,-0.824442982055,-8.5484688015
-16.4820456704,-4.60423070981,-2.79471516778,-4.42203754463
-11.3990025865,2.20572305324,-1.62498735351,0.754393712235
-9.62595950261,0.265676816289,0.384740460766,5.8008249691
-4.4129164187,1.29563057933,-1.72553172496,10.067256226
-1.83987333479,7.22558434238,2.06419608932,9.54368748283
4.58316974913,4.01553810543,1.45392390359,9.5801187397
2.50621283304,-16.6045081315,-1.90634828214,-2.07345000343
3.46925591696,-9.20455436848,-1.93662046786,-2.90701874657
1.26229900087,4.50539939457,0.183107346411,6.6294125103
0.155342084781,3.01535315762,3.55283516068,7.29584376717
0.988385168694,30.1553069207,10.182562975,13.482275024
5.79142825261,16.7252606837,1.41229078923,12.9087062809
5.84447133652,-8.97478555324,-6.79798139649,5.23513753777
6.09751442043,-6.75483179019,-0.90825358222,7.64156879464
-2.38944249565,7.09512197285,6.11147423205,4.2180000515
-0.326399411741,-7.4949242641,-2.90879795367,0.0744313083705
0.00664367217178,9.89502949895,2.2909298606,6.06086256524
4.12968675609,18.754983262,-1.26934232512,2.40729382211
2.12272984,18.944937025,-3.37961451085,8.39372507897
-2.94422707608,-25.0151092119,-6.73988669658,-6.07984366416
-1.62118399217,-12.5151554489,-0.150158882301,-4.70341240729
-6.64814090826,-1.04520168582,1.71956893197,-3.85698115043
-7.24509782435,11.2947520772,4.45929674625,0.0494501064422
-3.86205474044,0.644705840275,-2.25097543948,2.72588136331
-2.53901165652,-8.51534039668,-8.09124762521,-6.89768737982
-3.78596857261,-2.58538663363,-0.211519810931,-4.78125612296
-1.7429254887,20.0245671294,4.02820800334,-1.92482486609
-0.99988240478,0.914520892464,0.377935817616,-3.17839360923
-1.33683932087,-13.7855253445,-4.52233636811,-8.69196235236
0.146203763041,-8.36557158144,1.92739144616,-15.4455310955
-0.340753153043,-3.2856178184,2.23711926044,0.790900161377
-0.55771006913,-16.5556640553,-5.88315292529,-8.15266858176
-5.08466698521,-1.1557102923,-0.373425111013,-6.72623732489
-8.2116239013,-16.6857565293,-6.14369729674,-11.089806068
-4.91858081739,-22.9158027662,-5.95396948247,-13.3633748112
-5.25553773348,-12.1758490032,-3.56424166819,-15.6469435543
-6.99249464956,-9.01589524011,-1.09451385392,-16.4405122974
-3.33945156565,-15.8259414771,-8.12478603964,-15.6340810406
-6.19640848174,-7.14598771402,-1.86505822537,-6.63764978369
-5.61336539782,0.833966049027,1.4946695889,1.68878147318
-2.59032231391,-6.82608018793,-0.455602596821,-5.69478726995
-2.20727923,5.09387357512,2.67412521745,-1.38835601309
5.11576385392,8.97382733817,10.2338530317,2.33807524378
3.77880693783,-4.61621889879,-8.726419154,-2.80549349935
-1.02814997826,30.9937348643,2.76330866027,9.01093775751
-3.47510689434,-2.83631137269,-7.03696352545,0.647369014379
-3.69206381043,-20.7563576096,-6.82723571118,-8.21619972875
-0.539020726519,-3.0664038466,-2.4275078969,-1.86976847189
4.81402235739,-3.15645008355,-3.92778008263,2.63666278498
2.35706544131,-3.4364963205,-2.97805226835,1.89309404185
3.10010852522,-2.75654255746,2.62167554592,-2.05047470129
4.73315160913,9.51341120559,1.19140336019,2.47595655558
15.556194693,14.7533649686,-1.45886882553,10.0923878124
9.81923777696,-0.866681268315,-6.48914101126,2.08881906931
6.31228086087,-11.2767275053,-1.02941319698,-0.0447496738161
10.0553239448,24.9932262578,6.23031461729,16.4416815831
8.1183670287,-10.4768199792,-2.86995756844,6.03811283992
9.73141011261,-0.906866216126,3.68977024584,6.99454409679
6.07445319653,4.89308754692,5.24949806011,-0.83902464635
6.00749628044,27.13304131,12.4192258744,11.2074066105
4.98053936435,14.072995073,5.07895368866,12.6538378674
9.46358244826,-35.3470511639,-6.91131849707,-7.22973087575
6.82662553218,4.67290259911,0.038409317207,0.52670038112
3.78966861609,42.5828563622,9.56813713148,18.553131638
-1.2972883,16.0628101252,5.00786494575,2.17956289485
-3.12424521608,-7.24723611175,-0.0324072399708,-4.93400584828
-3.14120213217,7.1827176513,-1.9626794257,-4.73757459141
-5.74815904826,-5.66732858566,7.59704838858,0.958856665457
-10.0851159643,3.79262517739,12.2867762029,0.615287922323
-6.03207288043,4.09257894044,6.53650401713,-0.57828082081
-9.35902979652,-12.7974672965,3.2362318314,-9.44184956394
-0.247082122089,14.4184411337,8.83470930232,4.5555050872
2.34182246842,16.7168478186,5.93985536646,19.4493332551
3.75072705892,0.785254503528,8.9550014306,8.28316142303
-3.87036835057,-0.706338811569,1.05014749473,-7.60301040905
-3.18146376007,0.972067873332,1.54529355887,-3.66918224113
-0.00255916956303,-3.60952544177,-2.93956037699,-3.97535407321
-8.49365457906,12.2688812431,8.88558568714,-3.21152590529
-5.94474998855,-6.95271207196,11.0007317513,-6.73769773737
-1.78584539805,2.10569461294,8.74587781542,4.03613043054
-7.89694080754,-12.4458987022,3.20102387955,-9.19004140154
-4.11803621703,10.8325079827,6.74616994369,3.28378676638
-2.25913162653,9.92091466765,-1.67868399218,-4.6023850657
-4.74022703603,-10.9306786475,-2.23353792804,-7.85855689779
-8.56132244552,-17.9922719625,3.2516081361,-1.26472872986
-6.68241785501,1.81613472235,5.10675420023,0.19909943805
-2.48351326451,-7.97545859274,-0.968099735628,-4.87707239403
2.995391326,5.53294809216,2.70704632851,5.41675577389
-8.3657040835,-12.9486452229,0.872192392646,-8.32941605819
-7.84679949299,-12.950238538,-2.58266154322,-12.8155878903
-1.25789490249,-6.86183185314,-2.03751547908,-14.5117597224
2.14100968802,11.4965748318,-1.03236941494,-4.06793155444
0.629914278521,-17.8950184833,-6.56722335081,-11.4241033865
2.83881886903,-8.21661179843,-5.64207728667,-8.8002752186
1.87772345953,1.38179488647,0.0330687774658,0.323552949318
6.01662805004,-7.77979842863,0.938214841603,1.64738111723
0.805532640541,-7.37139174373,-5.67663909426,-3.32879071485
