1.82366279071,-4.21852834302,-3.55536337209,-0.387903343027
-1.85631245993,-4.34092725691,-3.5802013997,-1.56567750298
0.843712289432,-2.3233261708,-4.3950394273,3.51654833707
-3.07626296121,1.40427491531,-3.83987745491,2.97877417712
-3.65623821185,-0.03812399858,-3.78471548251,-4.04899998284
-6.38621346249,-4.41052291247,-4.65955351012,-5.65677414279
-5.36618871313,-10.0729218264,-6.45439153772,-4.91454830274
-10.5561639638,-12.3153207403,-7.61922956533,-9.66232246269
-10.2961392144,-12.4377196541,-7.24406759293,-13.7900966226
-6.97611446505,-9.03011856803,-4.54890562054,-8.6278707826
-11.2060897157,-6.46251748192,-2.39374364814,-4.50564494255
-7.11606496634,-6.23491639581,-2.45858167575,-2.4634191025
-2.22604021698,-3.04731530969,-0.813419703352,-1.27119326246
-2.14601546762,4.88028577641,-0.378257730956,2.06103257759
-3.93599071826,5.91788686252,-0.56309575856,3.34325841764
-1.9159659689,1.72548794864,-0.00793378616436,3.05548425769
-1.95594121954,-4.20691096525,-1.93277181377,-3.01228990226
-3.62591647018,-4.92930987915,0.832390158625,-1.15006406222
-1.03589172083,2.41829120697,1.75755213102,1.62216177783
2.55413302853,-0.594107706926,-0.637285896584,1.63438761788
2.64415777789,4.13349337919,2.83787607581,5.97661345793
3.06418252725,5.4710944653,2.23303804821,3.02883929797
-1.05579272339,-2.45130444859,0.438200020601,-0.788934861978
3.89423202597,8.42629663752,3.833361993,7.85329097807
8.96425677533,7.09389772363,4.84852396539,7.25551681812
2.97428152469,5.70149880974,5.73368593779,5.60774265817
0.0343062740467,5.81909989585,5.63884791018,7.25996849821
5.5943310234,8.55670098196,4.27400988258,12.1621943383
6.43435577276,9.80430206807,3.88917185497,10.8544201783
3.57438052212,7.98190315418,4.63433382737,9.80664601835
8.23440527148,3.85950424029,5.40949579976,4.8088718584
3.31443002084,7.1371053264,5.36465777216,6.20109769845
1.3444547702,3.68470641251,4.52981974455,6.1233235385
1.51447951956,9.80230749862,8.23498171695,9.02554937855
0.0145042689146,6.18990858474,3.80014368934,7.33777521859
1.23452901827,0.207509670847,3.54530566174,5.44000105864
-2.95544623236,-0.204889243043,3.97046763413,2.88222689869
-0.255421483005,3.97271184307,3.33562960653,4.36445273874
2.08460326635,3.15031292918,3.08079157892,1.08667857878
-2.23537198429,1.48791401529,1.95595355132,-1.68109558117
-2.01534723493,2.2655151014,2.06111552371,-0.688869741121
2.09467751443,3.55311618751,1.94627749611,1.19335609893
-0.725297736211,2.00071727362,2.74143946851,-0.524418061025
3.13472701315,10.4583183597,5.4166014409,5.91780777902
-0.185248237492,6.80591944584,1.9217634133,4.03003361907
0.394776511865,1.18352053195,2.81692538569,4.17225945912
3.98480126122,3.48112161806,3.14208735809,5.53448529916
2.57482601058,4.95872270417,2.32724933048,4.37671113921
1.47485075994,4.08632379028,2.03241130288,-0.691063020739
0.664875509305,2.70392487639,0.707573275273,-3.04883718069
0.634900258661,-0.2984740375,-0.687264752332,-3.91661134065
-1.74507499198,-0.570872951386,-0.152102779937,-1.9843855006
-6.28505024262,-1.45327186528,-0.0969408075434,-4.64215966055
-5.15502549326,2.28432922083,-0.701778835148,-2.5799338205
-1.0650007439,-3.57806969306,-1.64661686275,-2.50770798045
2.50502400546,-4.95046860694,-4.23145489036,-3.59548214041
0.755048754814,-5.29286752083,-2.46629291796,-5.84325630036
1.68507350417,-4.07526643472,0.388869054434,-5.77103046031
0.275098253533,-0.107665348616,-0.985968973171,-2.69880462026
-1.07487699711,-6.9100642625,-4.43080700078,-9.95657878022
0.105147752252,-5.18246317639,-1.93564502838,-8.34435294017
-1.33482749839,-5.50486209028,-1.79048305599,-6.75212710012
0.365197250969,-2.69726100417,-0.945321083591,-4.01990126007
4.89522200033,1.27034008194,0.639840888804,-1.16767542003
3.85524674968,1.81794116805,0.0750028611983,1.22455042002
1.63527149904,-0.444457745838,-1.0998351664,0.42677626007
0.745296248406,-6.04685665973,-1.97467319401,-5.69099789988
-5.14467900223,-4.68925557362,-1.44951122162,-7.87877205983
-1.32465425288,-3.11165448751,-0.82434924922,-8.89654621979
0.995370496483,-5.1140534014,-2.43918727682,-8.33432037974
2.12539524584,-3.33645231528,-2.11402530443,-7.45209453969
6.7454199952,-0.288851229176,-2.07886333203,-3.23986869964
6.47544474456,0.308749856937,-1.68370135964,-2.6076428596
2.68546949392,-1.71364905696,-2.57853938724,-2.40541701955
6.05549424328,-1.54604797085,-1.62337741485,-2.4831911795
8.95551899264,-3.22844688474,-1.96821544245,-2.73096533945
7.07554374199,-1.94084579862,-1.55305347006,-1.33873949941
3.73556849135,-3.27324471251,-0.997891497662,-3.15651365936
3.88559324071,-3.4356436264,-2.28272952527,-3.22428781931
5.35561799007,-0.228042540293,-1.79756755287,-0.222061979263
3.96564273943,4.13955854582,0.237594419525,3.99016386078
-0.194332511212,0.267159631927,0.0227563919179,2.83238970083
4.96569223815,-1.82523928196,-0.272081635687,4.15461554088
8.17571698751,2.27236180415,1.15308033671,6.91684138093
17.3357417369,-2.61003710974,-1.0917576909,3.62906722097
7.24576648622,-1.58243602363,-1.6965957185,3.57129306102
4.98579123558,-2.08483493752,-1.19143374611,1.30351890107
3.81581598494,-3.72723385141,-1.51627177371,-5.04425525888
1.2858407343,-0.569632765299,-1.16110980131,-2.28202941883
2.86586548366,-0.0220316791892,0.554052171079,-2.11980357879
-1.72410976698,-1.92443059308,-0.100785856526,-5.37757773874
-2.51408501762,-2.87682950697,-1.87562388413,-2.66535189869
-4.79406026826,-0.319228420856,-1.07046191174,-3.60312605864
-6.6340355189,2.66837266525,2.20470006066,-2.2509002186
-3.98401076955,0.865973751366,2.25986203306,-2.08867437855
-8.30398602019,-6.29642516253,-0.33497599455,-5.3064485385
-1.22396127083,-3.50882407641,-2.12981402215,-5.34422269845
-6.72393652147,-2.0412229903,-2.42465204976,-7.28199685841
-4.69391177211,2.25637809581,-1.37949007736,-4.07977101836
-4.45388702275,2.92397918192,-1.74432810497,0.152454821689
0.696137726609,3.58158026803,0.150833867427,-0.245319338263
-0.383837524034,-4.25081864587,-1.71400416018,-6.58309349822
1.62618722533,-1.87321755975,-0.468842187782,-1.68086765817
6.62621197469,-0.735616473637,-0.253680215386,-0.53864181812
-2.92376327595,-3.62801538753,-1.21851824299,-2.09641597807
-0.693738526599,0.539585698582,0.0666437294021,1.08580986198
7.77628622276,1.77718678469,0.8918057018,2.87803570202
5.97631097212,2.3247878708,-0.193032325806,3.78026154207
1.25633572148,2.79238895691,0.922129646589,4.30248738212
-2.59363952916,2.37999004302,1.60729161898,3.83471322217
3.5263852202,3.25759112913,1.49245359138,3.10693906221
2.68640996956,-1.91480778476,0.427615563774,1.87916490226
4.20643471892,-1.72720669865,0.622777536169,2.45139074231
2.11645946827,1.84039438747,0.527939508565,0.403616582356
-1.32351578237,-3.11200452643,-2.67689851904,0.315842422404
-6.56349103301,-4.59440344031,-2.70173654665,1.50806826245
-3.77346628364,-0.736802354204,-0.0665745742499,2.7402941025
-1.74344153429,0.420798731906,0.548587398147,0.402519942547
-8.90341678493,-0.801600181985,1.03374937054,1.66474578259
-5.06339203557,2.43600090413,0.178911342937,5.08697162264
-5.52336728621,0.143601990236,-1.79592668467,1.60919746269
-7.87334253686,4.47120307635,0.719235287726,4.61142330274
-0.863317787494,4.27880416246,0.944397260122,6.40364914279
-2.96329303814,1.62640524857,-0.500440767482,1.06587498283
-6.97326828878,4.25400633468,2.24472120491,1.62810082288
-8.41324353942,2.50160742079,3.26988317731,5.08032666293
-6.29321879006,-0.1207914931,1.1550451497,3.81255250298
-3.1431940407,-0.80319040699,1.3502071221,2.14477834302
0.902194767445,-0.241140988357,-0.101395348838,-0.0831613372102
-2.30612350646,-1.12553862043,1.3016888791,-2.25957070592
-5.02444178035,0.880063747496,1.07477310703,-1.51598007462
-3.96276005425,-0.144333884578,0.767857334964,-1.02238944333
-6.54107832814,-2.36873151665,-0.239058437102,-0.748798812032
-6.35939660204,2.76687085128,0.404025790833,-0.445208180738
-2.87771487594,2.3824732192,-0.0428899812323,3.33838245056
0.123966850162,-0.32192441287,-0.629805753299,3.50197308185
0.735648576268,-0.616322044942,-0.316721525363,0.695563713147
2.96733030237,0.229280322983,-1.39363729743,1.07915434444
-5.32098797153,2.00488269091,-2.67055306949,1.93274497574
-8.03930624542,1.44048505884,-2.39746884156,1.02633560703
-2.14762451932,-1.57391257324,-3.31438461363,-0.750073761675
-4.37594279321,-6.56831020531,-3.97130038569,-2.57648313038
-4.07426106712,-1.68270783738,-2.89821615776,-0.562892499086
-2.38257934101,-3.17710546945,-1.35513192982,-2.96930186779
-6.3908976149,-5.87150310153,-1.71204770189,-2.8957112365
-3.3892158888,-3.8159007336,-1.37896347395,-1.7021206052
-1.7675341627,-0.0402983656713,-1.44587924602,1.21147002609
-1.2058524366,-3.40469599774,-1.65279501808,0.0150606573879
1.93582928951,-3.33909362982,-2.31971079015,0.398651288682
-5.49248898439,-3.12349126189,-3.50662656222,-1.00775808002
0.0191927417145,-1.53788889396,-4.49354233428,-1.04416744873
-0.399125532185,-3.80228652604,-5.03045810634,-2.13057681743
-0.367443806081,-4.22668415811,-2.95737387841,-5.36698618614
-1.20576207998,-5.71108179018,-2.98428965048,-7.45339555484
-2.55408035387,-6.74547942225,-4.01120542254,-5.05980492355
-5.79239862777,-8.26987705433,-3.11812119461,-5.36621429225
-8.73071690167,-9.3442746864,-3.52503696667,-8.24262366096
-6.65903517556,-9.12867231847,-3.48195273874,-9.74903302967
-3.09735344946,-9.20306995055,-3.6188685108,-7.06544239837
-1.09567172336,-2.94746758262,-2.45578428287,-3.08185176708
-10.6339899973,-5.83186521469,-3.15270005493,-4.29826113578
2.38769172885,-4.98626284677,-2.139615827,-4.04467050449
5.01937345495,-4.08066047884,-2.88653159907,-2.34107987319
4.31105518106,-2.20505811091,-2.73344737113,0.0125107581016
4.32273690716,-4.30945574299,-1.9703631432,-0.783898610603
4.24441863326,-1.23385337506,-1.07727891526,0.609692020691
-2.58389964063,-3.62825100713,-2.01419468733,-2.71671734801
6.71778208547,-5.93264863921,-2.51111045939,-4.20312671672
5.16946381157,-1.20704627128,1.51197376854,-1.95953608542
0.441145537679,-3.67144390335,-0.0549420035259,-0.88594545413
7.58282726378,-5.34584153543,-2.13185777559,-0.382354822836
9.71450898988,0.529760832502,-2.24877354766,1.30123580846
11.576190716,-2.20463679957,-1.64568931972,2.04482643975
12.4878724421,0.360965568358,-1.80260509179,2.24841707105
5.89955416819,3.25656793629,0.180479136148,5.36200770234
4.5212358943,3.39217030421,2.55356336408,4.85559833364
7.5529176204,-1.15222732786,2.74664759202,0.0191889649332
5.2145993465,8.16337504007,6.13973181995,5.94277959623
2.76628107261,6.90897740799,5.38281604789,4.92637022752
1.21796279871,6.40457977592,5.84590027582,7.92996085882
1.28964452482,10.6301821438,7.58898450375,6.97355149011
1.99132625091,9.16578451177,7.77206873169,6.51714212141
-1.07699202298,8.5413868797,7.65515295962,7.0807327527
3.44468970312,11.9269892476,5.75823718756,7.53432338399
0.616371429227,11.7925916156,6.71132141549,8.54791401529
0.878053155331,12.9281939835,6.82440564343,9.24150464658
8.23973488143,12.3237963514,5.41748987136,11.1050952779
3.55141660754,11.9093987193,4.9005740993,10.3786859092
8.39309833364,12.4850010873,3.24365832723,9.47227654047
9.76478005974,14.4306034552,5.25674255517,9.65586717176
8.14646178584,11.6462058231,5.9198267831,10.1494578031
2.76814351195,9.16180819105,3.30291101103,8.46304843435
9.83982523805,9.80741055897,1.87599523897,4.64663906565
11.9115069642,10.0030129269,2.3590794669,6.08022969694
4.79318869026,10.6886152948,4.64216369484,6.89382032824
5.74487041636,7.11421766275,3.18524792277,3.36741095953
-1.76344785753,3.36982003068,2.60833215071,-0.218998409175
2.47823386857,3.25542239861,2.20141637864,-2.06540777788
4.44991559467,4.77102476653,1.75450060657,-1.30181714658
8.89159732077,2.64662713446,2.35758483451,-1.49822651529
1.23327904688,3.06222950239,3.31066906244,-0.464635883995
0.904960772983,2.74783187031,1.52375329038,-0.431045252701
-2.41335750091,7.61343423824,4.29683751831,0.0225453785933
-0.231675774812,3.91903660617,2.47992174625,-1.22386399011
0.650005951291,4.9446389741,2.52300597418,-3.56027335882
-0.298312322604,-1.18975865798,0.666090202116,-6.34668272752
-6.6866305965,-8.61415629005,-0.120825569949,-12.1030920962
-6.3149488704,-1.52855392213,2.32225865799,-6.70950146493
-9.0132671443,-3.6829515542,1.80534288592,-8.71591083364
-8.24158541819,-0.28734918627,2.78842711386,-6.79232020234
-5.47990369209,-3.62174681834,2.49151134179,-2.32872957105
-12.688221966,-2.82614445042,3.65459556972,-4.58513893975
-3.97654023988,0.18945791751,3.91767979766,-0.31154830846
-2.18485851378,0.895060285438,2.20076402559,0.142042322835
-3.06317678768,-1.27933734664,1.63384825353,0.775632954129
-2.16149506157,-0.833734978711,1.31693248146,-1.40077641458
-3.46981333547,-7.83813261078,0.250016709397,-4.61718578328
1.90186839064,-5.07253024285,2.03310093733,-3.51359515199
1.84355011674,1.38307212507,3.26618516527,2.39999547931
1.68523184284,-1.721325507,2.4792693932,3.4335861106
-0.833086431056,-0.435723139071,3.59235362113,-1.1928232581
1.78859529505,4.00987922886,2.36543784907,2.30076737319
-5.48972297885,-5.29451840322,-1.331477923,-2.80564199551
-3.99804125275,-2.10891603529,-2.26839369506,-0.342051364219
-3.78635952664,-0.923313667365,-2.71530946713,-1.71846073292
-1.58467780054,-10.8577112994,-5.33222523919,-7.63487010163
3.74700392556,-3.88210893151,-3.25914101126,-3.36127947033
-0.851314348332,-1.96650656358,-1.46605678333,-0.397688839041
11.6303673778,-1.08090419566,-1.16297255539,-1.10409820775
-3.86795089613,-5.50530182773,-2.31988832746,-3.85050757645
-8.86626917002,-4.3996994598,-1.82680409952,-2.94691694516
-3.49458744392,-4.44409709188,-2.30371987159,-2.92332631386
-5.36290571782,-4.82849472395,-2.33063564365,-2.37973568257
1.39877600829,4.95710764398,-2.34755141572,6.10385494873
2.51045773439,1.01271001191,-2.46446718778,5.25744558002
2.63213946049,-0.981687620166,-2.44138295985,2.36103621132
4.07382118659,1.43391474776,-1.16829873191,2.32462684261
2.6055029127,1.10951711568,-1.10521450398,3.06821747391
-0.262815361199,-0.684880516386,-0.372130276044,2.1618081052
2.89886636491,0.680721851539,-0.659046048109,2.9953987365
6.28054809101,-1.18367578053,-3.00596182018,2.95898936779
-1.08777018289,-2.59807341261,-3.28287759224,0.322579999085
2.70391154322,0.30752895532,-2.78979336431,-0.713829369621
2.44559326932,3.38313132325,-1.40670913637,2.65976126167
5.42727499543,-4.76126630883,-4.00362490844,0.343351892969
7.11895672153,-5.5456639409,-3.8905406805,-1.32305747574
1.38063844763,-3.69006157297,-4.13745645257,-1.87946684444
2.73232017373,-4.12445920505,-5.01437222463,-1.24587621315
-5.41599810016,-4.30885683712,-3.5412879967,-2.66228558185
-6.25431637406,-4.55325446919,-1.07820376877,-2.96869495056
-5.39263464796,-3.17765210127,-1.26511954083,-2.78510431926
-7.08095292185,-0.682049733336,-1.9520353129,-4.65151368797
-9.23927119575,-2.47644736541,-2.66895108496,-3.34792305667
-4.28758946965,-3.21084499748,-2.13586685703,-2.98433242538
-3.56590774354,-3.10524262956,-1.44278262909,-0.650741794086
-10.0542260174,4.46035973837,1.84030159884,4.58284883721
2.78488008722,3.97704215117,-1.10727470931,7.21388808139
4.32835392443,4.60125088698,-1.88823667254,5.81771710767
-0.518172238357,-0.264540377219,-2.35919863578,4.77154613395
7.01530159885,-0.0403316414049,-1.24016059902,3.59537516023
8.89877543606,-0.246122905599,-0.941122562263,2.9592041865
1.90224927327,3.08808583021,-1.4620845255,6.49303321278
8.74572311048,0.252294566017,-2.90304648874,2.81686223906
6.40919694769,0.636503301826,-4.13400845198,0.320691265334
8.7726707849,-0.439287962367,-5.09497041522,2.27452029161
8.24614462211,-1.41507922656,-5.11593237846,-0.561650682112
8.53961845932,1.28912950925,-4.2668943417,0.00217834416617
8.56309229652,4.80333824506,-1.28785630494,1.55600737044
-4.06343386627,-0.292453019134,-0.368818268176,-0.40016360328
2.87003997094,1.70175571668,0.100219768585,2.393665423
3.74351380815,3.37596445248,2.17925780534,6.96749444928
7.47698764536,2.19017318829,-0.521704157894,4.98132347555
15.4804614826,7.4643819241,-1.61266612113,7.94515250183
17.4939353198,8.25859065991,-0.893628084374,11.2089815281
16.497409157,9.03279939572,0.0254099523881,12.3628105544
17.3508829942,7.49700813153,0.674447989148,9.14663958066
14.5743568314,5.55121686733,-0.266513974091,4.62046860694
9.50783066862,2.82542560315,-0.847475937329,0.514297633215
0.591304505822,-1.68036566105,-1.57843790057,-0.101873340507
-0.145221656967,4.86384307476,-1.14939986381,2.89195568577
-12.9217478198,-0.541948189431,-0.910361827049,-1.61421528795
-4.29827398255,-2.61773945362,-1.15132379029,-2.54038626167
-3.39480014534,1.54646928218,-1.44228575353,2.4234427646
-1.11132630813,5.070678018,-0.343247716766,0.557271790879
-0.527852470921,10.0148867538,0.625790319995,2.22110081716
2.44562136629,1.43909548961,0.624828356755,1.35492984343
-0.500904796503,9.10330422542,2.50386639352,5.46875886971
-1.43743095929,2.71751296123,1.94290443028,3.82258789599
-2.10395712208,8.46172169704,3.65194246704,6.26641692227
-0.400483284873,7.88593043285,3.1309805038,7.04024594854
-5.44700944766,5.67013916865,3.58001854056,6.75407497482
-5.15353561046,3.23434790446,3.22905657732,3.3879040011
-1.60006177325,7.66855664027,3.33809461408,5.16173302737
1.51341206396,6.08276537608,3.11713265084,5.03556205365
-0.123114098831,6.45697411189,3.3061706876,0.839391079929
-4.18964026162,4.0011828477,2.43520872436,1.13322010621
-1.25616642441,1.6353915835,-0.735753238878,2.01704913248
-1.0526925872,4.00960031931,-1.51671520212,1.20087815876
-3.27921874999,-5.82619094488,-4.46767716536,-6.50529281496
-4.50574491279,-8.01198220907,-7.2786391286,-5.60146378868
-3.79227107558,-3.56777347326,-3.67960109183,-0.0376347624078
-2.28879723837,-5.19356473745,1.99943694493,-1.27380573613
-3.16532340116,-1.99935600164,1.95847498169,-0.909976709853
-10.4218495639,-4.63514726584,2.55751301845,-5.37614768358
-8.82837572674,0.199061469972,2.67655105521,-3.3323186573
-7.04490188953,-6.59672979422,-1.32441090803,-4.03848963102
-6.05142805232,-10.3725210584,-1.81537287127,-6.85466060474
-10.1179542151,-11.7083123226,-3.15633483451,-11.7208315785
-13.6644803779,-12.9841035868,-2.54729679775,-11.3070025522
-8.79100654069,-15.889894851,-2.76825876099,-13.2031735259
-13.4875327035,-9.31568611518,-2.00922072423,-10.0593444996
-12.3440588663,-10.3114773794,-3.70018268747,-10.4355154734
-13.8605850291,-7.65726864356,1.52885534929,-9.31168644708
-9.27711119186,-5.53305990775,2.48789338606,-7.1578574208
-9.42363735465,-6.23885117194,1.05693142282,-9.02402839453
-6.01016351744,-6.39464243613,4.66596945958,-5.51019936825
-8.19668968023,-8.68043370033,2.04500749634,-3.04637034197
-4.81321584302,-7.68622496452,-0.765954466902,-6.59254131569
-1.63974200581,-3.86201622871,0.33308356986,-5.73871228942
1.6037318314,-5.1178074929,0.872121606619,-3.44488326314
-1.58279433139,-5.74359875709,0.85115964338,-5.36105423686
-9.60932049418,-7.34939002129,1.21019768014,-7.94722521059
-1.38584665698,0.904818714524,3.1992357169,-1.45339618431
-5.38237281977,-3.07097254967,1.83827375366,-4.53956715803
-1.99889898256,-1.57676381386,3.09731179042,-3.83573813175
1.60457485465,-2.82255507806,5.28634982718,-3.94190910548
-6.57195130814,-1.72834634224,4.17538786394,-5.3180800792
-3.91847747093,-2.39413760644,3.1844259007,-5.95425105292
-2.99500363372,2.61007112937,4.15346393747,-1.77042202665
-1.18152979651,1.69427986518,4.51250197422,-3.90659300037
0.0319440406965,-7.84151139901,2.32154001099,-5.73276397409
-2.31458212209,-4.9573026632,4.85057804775,-6.12893494781
-5.84110828488,-3.77309392739,4.28961608451,-8.26510592153
-4.72763444767,-1.59888519159,5.20865412127,-5.18127689526
-2.91416061046,-0.0346764557762,3.84769215803,-2.95744786898
-2.91068677326,-7.77046771997,0.926730194789,-6.3936188427
3.13278706395,-5.23625898416,0.635768231552,-5.08978981643
-0.063739098834,-2.62205024835,4.61480626831,-2.70596079015
-2.18026526163,-0.0278415125431,3.47384430507,-2.61213176387
-4.10679142442,3.74636722326,3.39288234183,-2.96830273759
-4.19331758721,-8.80942404093,-0.898079621405,-6.73447371132
-7.51984375,-8.42521530512,-0.869041584645,-6.37064468504
-6.12636991279,-6.99100656931,-1.18000354788,-5.37681565876
-6.53289607558,-7.5967978335,-4.11096551112,-8.90298663249
-6.54942223837,-5.63258909769,-4.82192747436,-9.53915760621
-4.86594840116,-5.01838036189,-1.6028894376,-6.09532857993
-6.74247456395,-2.65417162608,0.256148599159,-4.81149955365
-5.26900072674,-2.73996289027,1.84518663592,-5.15767052738
-3.51552688954,-1.06575415446,-0.21577532732,-4.0138415011
-9.91205305233,-2.85154541865,-0.946737290558,-4.21001247482
-5.02857921512,0.15266331716,1.2623007462,-0.956183448546
-8.53510537791,-2.64312794703,1.16133878296,-1.04235442227
-0.641631540697,-0.808919211224,1.23037681972,-0.568525395991
-3.85815770349,2.56528952458,1.42941485648,2.65530363029
-0.864683866283,5.04949826039,1.00845289324,1.72913265656
2.24878997093,4.9037069962,2.19749093,4.89296168284
3.23226380814,4.13791573201,1.90652896677,5.60679070912
1.58573764535,3.04212446781,0.495567003527,2.4006197354
3.54921148255,6.22633320363,1.93460504029,5.00444876167
7.40268531976,4.79054193943,0.103643077047,3.30827778795
0.156159156973,-0.185249324757,-1.23731888619,0.632106814227
-1.11036700581,-5.48104058895,-1.99828084943,-1.99406415949
9.08310683139,-3.55683185314,-0.82924281267,-1.27023513322
-1.6834193314,-1.16262311733,-2.26020477591,-1.86640610694
1.80005450581,-1.20841438152,-1.12116673915,-0.612577080664
3.52352834302,-1.83420564572,0.737871297613,-2.00874805439
9.58700218023,1.41000309009,0.606909334372,1.61508097189
6.04047601744,4.8542118259,0.135947371133,7.36890999817
10.1039498546,4.76842056171,-0.795014592108,8.36273902444
9.57742369186,3.42262929752,-1.24597655534,4.81656805072
7.50089752906,5.10683803333,-1.50693851858,6.070397077
10.7843713663,4.97104676913,-2.33790048183,6.39422610328
9.04784520348,7.07525550494,-2.12886244506,7.82805512955
10.1613190407,11.9094642408,-0.559824408303,12.4618841558
9.4747928779,8.51367297656,-2.51078637154,10.1457131821
9.34826671511,13.9878817124,-0.18174833478,12.6995422084
4.52174055232,1.29209044818,-2.81271029802,5.69337123466
4.99521438953,1.98629918398,-4.08367226126,4.75720026094
-0.591311773263,6.10050791979,-3.3046342245,4.01102928722
1.84216206395,4.4047166556,-3.34559618774,4.64485831349
2.29563590116,1.43892539141,-3.09655815098,4.39868733977
7.88910973836,4.05313412722,-3.65752011422,8.52251636605
10.7725835756,6.19734286303,-3.13848207746,9.60634539233
7.82605741279,4.41155159883,-2.5794440407,8.1301744186
5.82312500001,5.34022892442,6.13842659884,6.36053052325
0.160638533478,-2.31900819447,4.27373680988,2.82266537722
-2.05184793306,2.37175468664,4.45904702092,4.78480023118
2.1856656004,-0.0574824322466,2.23435723196,3.98693508515
5.73317913387,3.67328044887,3.149667443,4.91906993911
-1.39930733267,5.64404332998,4.63497765404,6.67120479308
1.0782062008,6.58480621109,4.69028786509,4.74333964704
5.54571973426,5.5155690922,4.49559807613,6.00547450101
4.80323326772,1.51633197331,2.80090828717,3.84760935497
5.83074680119,3.50709485443,0.916218498214,6.31974420893
2.67826033465,0.207857735539,-1.04847129075,6.2218790629
2.71577386812,-2.56137938335,-2.5331610797,-0.205986083137
-0.346712598413,1.36938349776,1.38214913134,2.30614877083
4.56080093505,0.260146378871,1.03745934238,5.20828362479
-0.181685531486,2.56090925998,1.46276955342,3.25041847876
2.52582800198,3.25167214109,2.02807976446,0.782553332721
-3.20665846456,5.8724350222,1.68338997551,4.95468818669
5.29085506891,-4.13680209668,1.10870018655,2.38682304065
1.45836860237,-6.54603921557,-1.74598960241,-1.98104210539
-6.07411786417,-2.63527633446,-2.14067939137,-0.26890725142
-3.2666043307,-1.58451345335,-1.03536918032,-3.29677239746
-6.07909079724,-1.28375057224,1.13994103072,-1.71463754349
-3.96157726377,-7.12298769113,0.0252512417592,-4.70250268953
-5.03406373031,-3.36222481001,-0.2594385472,-5.45036783556
-0.616550196846,1.0485380711,1.80587166384,-2.4882329816
-5.10903666338,3.43930095221,1.19118187488,-1.98609812763
-5.11152312992,-0.519936166682,1.10649208593,-3.40396327367
-6.66400959645,-5.22917328557,-0.248197703029,-7.3018284197
-4.62649606299,-2.40841040446,-0.102887491988,-4.93969356574
-1.00898252952,-1.04764752334,-0.837577280947,0.122441288224
4.18853100394,-5.01688464223,-3.66226706991,-0.265423857812
6.26604453741,-3.16612176112,-2.73695685886,-1.10328900385
0.763558070874,-5.43535888001,-1.48164664782,-3.77115414988
-1.51892839566,0.825404001102,-0.826336436779,-2.03901929592
-5.5014148622,-2.88383311779,-0.571026225738,-4.66688444195
-5.01390132874,3.44692976332,0.394283985304,-0.764749587989
-6.49638779527,0.267692644436,1.27959419635,-0.592614734024
-0.188874261807,4.96845552555,2.71490440739,0.709520119941
0.608639271661,1.29921840666,1.13021461843,0.661654973905
2.81615280512,4.56998128777,0.805524829473,1.27378982787
5.69366633859,6.72074416888,1.35083504052,5.12592468183
1.42117987205,-1.97849295001,0.326145251556,0.918059535798
-1.04130659448,-1.4777300689,-0.358544537401,-3.20980561024
-5.73379306102,1.20303281221,-1.73323432636,-2.85767075627
-5.09627952755,1.54379569332,-2.75792411532,-1.57553590231
-2.83876599409,-0.685441425565,-1.09261390427,-5.29340104834
-4.25125246063,-2.00467854445,-1.46730369323,-5.90126619438
0.256261072838,-4.88391566334,-2.68199348219,-5.93913134041
4.9537746063,-5.86315278223,-3.63668327115,-5.92699648645
1.01128813977,-4.72238990112,-3.09137306011,-3.16486163249
-0.261198326767,5.82837298,0.803937150935,2.92727322148
-2.10368479331,-0.410864138892,-0.260752638023,3.09940807544
-1.12617125984,-2.55010125778,-0.725442426981,2.91154292941
-1.90865772637,0.510661623332,-1.01013221594,0.283677783372
1.41885580709,-1.15857549556,-1.1548220049,-2.30418736266
-3.45363065945,-0.797812614448,-1.72951179386,-5.8820525087
-2.07611712598,-0.777049733337,-1.67420158281,-4.41991765473
-5.09860359252,-1.73628685223,-0.818891371771,-5.03778280077
-2.37109005905,-5.90552397111,-1.44358116073,-7.10564794681
-1.23357652559,-2.28476109,-2.32827094969,-3.84351309284
-5.66606299212,-2.35399820889,-0.972960738645,-3.86137823888
-3.69854945866,1.56676467222,0.912349472397,1.67075661509
-2.97103592519,-2.03247244667,-1.99234031656,0.702891469053
-0.0435223917302,-6.12170956556,-3.45703010552,-5.78497367698
2.50399114173,-2.47094668444,-2.17171989448,-2.60283882302
2.8115046752,1.30981619667,-1.13640968343,-0.820703969053
-0.990981791336,-0.499420922224,-1.11109947239,-3.58856911509
3.13653174213,3.19134195889,0.70421073865,-0.266434261125
2.51404527559,-2.30789516,-1.99047905031,-2.97429940716
1.86155880905,-2.90713227888,-3.36516883927,-4.0121645532
3.30907234252,-0.226369397773,-4.65985862822,-0.470029699231
4.99658587599,1.03439348334,-3.68454841718,-0.277894845267
3.90409940945,4.72515636445,-1.81923820614,1.9242400087
2.80161294291,4.99591924556,-0.4939279951,0.456374862662
3.17912647638,1.17668212667,0.0713822159432,-0.691490283374
8.33664000984,1.50744500778,-3.32330757301,2.60064457059
3.24415354331,-4.70179211111,-0.827997361972,0.742779424556
-0.0483329232266,1.17897077,0.627312849068,2.78491427852
-2.47081938976,3.36973365112,-2.62737693989,3.91704913248
-0.7233058563,-0.219503467772,-2.46206672885,1.17918398645
-2.36579232283,2.30125941334,-1.51675651781,-2.35868115959
-5.20827878937,0.582022294449,-0.721446306761,-4.51654630562
-5.7207652559,-4.37721482444,-1.45613609572,-7.41441145166
-3.26325172244,-1.79645194333,-1.52082588468,-4.38227659769
0.904261811022,4.52431093778,-1.17551567364,1.41985825627
3.74177534449,5.0650738189,-1.79020546259,3.40199311024
2.84928887795,5.42583670001,-1.80489525155,4.4841279642
1.87680241142,3.12659958112,-2.46958504051,3.10626281817
4.67431594488,1.80736246223,-1.38427482947,4.12839767213
3.30182947834,3.24812534334,-0.958964618427,6.15053252609
-0.860656988192,2.66888822446,-2.06365440738,0.242667380059
-3.76314345473,0.159651105569,-1.11834419634,-1.02519776598
-1.02562992126,0.190413986678,0.946966014701,0.0369370879871
2.7518836122,1.04117686779,-1.41772377426,-0.600928058048
3.14939714567,3.1019397489,-1.16241356322,1.56120679592
6.14691067913,0.0627026300135,-1.26710335217,1.39334164988
3.4344242126,0.0234655111235,-2.29179314113,1.92547650385
4.75193774606,-4.46577160776,-1.80648293009,-2.56238864219
2.48945127953,-0.155008726655,0.368827280952,2.07974621177
5.67696481299,10.7557541545,1.33413749199,7.75188106574
-0.205521653548,-3.30348296443,-3.08055229696,-0.895984080296
-1.76800812008,-2.31272008332,-3.12524208592,0.326150773668
-2.69049458662,-4.70195720221,-2.25993187488,-2.03171437237
-5.89298105315,-6.1311943211,-2.16462166384,-0.269579518404
2.46453248031,-5.48043143998,-3.5693114528,-1.84744466444
3.24204601377,-6.52966855887,-3.09400124175,-3.44530981047
5.13955954724,-8.35890567776,-2.52869103071,-1.28317495651
6.6770730807,-8.30814279665,-2.31338081967,-0.961040102546
2.74458661417,-7.99737991554,-0.878070608627,-2.33890524858
2.07210014763,-6.53661703442,0.427239602413,-4.31677039462
-0.0803863188994,-5.77585415331,0.902549813456,-7.00463554065
-5.67287278544,-4.8850912722,0.557860024497,-4.58250068669
-6.01535925197,-3.49432839109,2.68317023554,-3.36036583272
-1.45784571851,-1.99356550998,4.56848044658,-1.28823097876
-1.64033218504,8.82719737113,8.44379065762,3.34390387521
-4.39281865158,3.68796025224,4.08910086867,1.32603872917
-0.0753051181164,1.09872313335,2.33441107971,2.04817358314
-0.957791584653,0.519486014466,2.54972129075,1.3003084371
-1.54027805119,3.20024889558,6.01503150179,5.18244329107
-1.61276451772,4.21101177669,6.11034171283,9.39457814503
10.2147490157,9.8917746578,5.38565192388,7.82671299899
2.6922625492,6.32253753891,4.12096213492,5.35884785296
-0.620223917329,3.59330042002,3.96627234596,5.39098270692
-5.80271038386,3.13406330113,2.371582557,2.00311756089
1.7448031496,1.74482618225,2.35689276804,0.605252414852
-0.497683316935,4.67558906336,3.39220297909,3.23738726882
-6.04016978347,2.95635194447,4.26751319013,3.17952212278
-7.29265625001,-0.352885174419,2.15282340117,-2.54834302326
2.91294331396,9.23883720931,1.94531976744,12.8344040698
2.88101950193,11.1736808163,1.98484475142,11.7595918502
2.40909568989,10.4985244232,1.97436973539,9.93477963056
-0.472828122136,8.00336803013,2.15389471937,6.46996741096
-1.84475193417,2.19821163707,1.92341970335,4.44515519135
0.543324253806,5.89305524401,1.64294468733,7.40034297175
1.99140044177,7.65789885095,2.0024696713,10.2355307521
-0.940523370256,6.45274245789,2.13199465528,9.35071853255
4.08755281771,7.01758606483,1.11151963926,10.3759063129
6.42562900568,8.09242967177,1.62104462323,11.3010940933
2.96370519365,4.29727327871,0.280569607212,4.95628187374
2.87178138162,3.72211688565,1.08009459119,5.83146965414
1.83985756959,6.05696049259,3.65961957517,7.08665743453
2.03793375755,11.0818040995,4.52914455914,9.59184521493
4.95600994553,-2.23335229353,-0.801330456878,3.89703299533
3.52408613349,2.58149131341,-0.131805472902,6.65222077573
1.82216232147,1.37633492035,-0.402280488925,4.64740855612
0.500238509434,0.351178527293,-1.64275550495,-0.157403663478
1.78831469741,-2.25397786577,-1.46323052097,-0.332215883082
1.85639088537,-3.18913425883,-1.56370553699,1.41297189732
-4.27553292666,-3.10429065189,-1.63418055302,0.748159677713
-1.63745673869,-5.30944704495,-1.06465556904,-3.02665254189
1.46061944928,-2.17460343801,-0.95513058506,2.43853523851
0.258695637251,-3.66975983107,-0.825605601083,1.88372301891
6.17677182522,-1.87491622413,-2.59608061711,0.588910799303
4.82484801319,-4.06007261719,-2.80655563313,1.6240985797
11.1529242012,-1.66522901025,-1.69703064915,5.4192863601
8.40100038913,3.49961459669,0.00249433482531,4.7144741405
4.92907657709,-1.07554179637,0.0220193188052,1.51966192089
5.23715276506,3.35930181057,1.08154430278,3.89484970129
5.12522895303,-0.415854582487,-1.17893071324,0.370037481687
6.123305141,-8.17101097554,-5.36940572927,-2.80477473792
2.86138132897,-8.52616736861,-4.33988074529,-6.90958695752
-2.31054248306,-8.41132376167,-3.70035576131,-6.30439917712
-2.04246629509,-10.2364801547,-3.86083077733,-6.36921139672
-0.664390107122,-6.34163654779,-3.37130579335,-5.51402361633
-2.47631391915,-2.71679294085,-2.91178080938,-3.67883583593
0.331762268816,-0.141949333905,0.5877441746,-2.13364805553
-2.08016154322,4.24289427303,3.04726915858,-1.56846027513
-3.40208535525,-1.79226212003,0.736794142553,-4.69327249474
-2.06400916728,-3.79741851309,-1.66368087347,-3.12808471434
-2.82593297931,-1.80257490615,-0.814155889491,-5.06289693394
4.36214320866,-0.407731299209,-1.13463090551,-4.79770915354
4.54021939663,3.14711230774,-0.915105921536,-2.06252137315
3.4882955846,3.35195591467,-0.635580937558,1.63266640725
7.99637177257,1.94679952161,-1.55605595358,2.68785418765
4.28444796054,6.38164312855,2.37346903039,3.91304196805
5.62252414851,7.5464867355,5.11299401437,2.19822974844
7.85060033648,5.87133034243,4.95251899835,2.36341752884
2.74867652444,5.07617394938,6.76204398233,0.198605309238
-4.98324728758,0.561017556312,4.1115689663,-5.27620691036
-11.6951710996,-3.12413883675,2.63109395028,-11.46101913
-11.6370949116,-2.91929522981,1.96061893426,-11.1658313496
-12.8390187237,-7.87445162287,-1.21985608176,-10.9606435692
-9.85094253571,-11.9596080159,-3.28033109779,-14.6954557888
-11.3128663477,-9.36476440898,-3.33080611381,-15.0902680084
-6.48479015977,-10.029920802,-2.92128112983,-12.765080228
-0.986713971801,-6.0450771951,-2.38175614585,-7.92989244758
-1.41863778383,-3.67023358817,-1.56223116188,-4.93470466719
-2.45056159586,-6.50538998122,0.5772938221,-7.96951688679
-6.03248540789,-1.70054637429,1.48681880608,-4.96432910639
0.625590780077,1.61429723266,-0.283656209946,-3.97914132599
1.00366696804,-1.04085916041,-1.92413122597,-4.5339535456
-2.39825684399,-2.15601555346,-1.77460624199,-4.9787657652
-2.87018065602,-3.56117194653,-0.525081258014,-6.4235779848
-8.17210446805,-1.74632833958,1.65444372597,-5.1483902044
-6.29402828008,-1.05148473264,1.94396870994,-8.16320242401
-3.95595209211,1.1033588743,1.98349369392,-7.50801464361
-4.87787590414,-3.45179751877,1.4630186779,-7.08282686321
-9.96979971617,-4.27695391182,0.872543661875,-4.52763908281
2.9682764718,-1.99211030489,0.822068645852,-1.73245130242
-1.73364734023,2.35273330206,2.23159362983,3.30273647798
-5.15557115226,-1.13242309101,-0.748881386195,2.32792425838
-3.83749496429,-2.04757948406,-0.489356402219,-4.48688796122
-6.63941877632,2.53726412288,0.180168581761,-3.32170018083
2.22865741164,-8.91789227018,-5.13030643426,-6.51651240043
-3.83326640039,-6.68304866325,-2.61078145028,-7.96132462003
-5.21519021242,-3.2182050563,-2.92125646631,-4.58613683964
-6.38711402445,-7.94336144936,-5.32173148233,-7.93094905924
-9.58903783648,-8.81851784242,-1.01220649835,-8.91576127884
-10.2109616485,-9.77367423549,-0.122681514376,-9.16057349844
-3.00288546054,-9.56883062854,-2.1231565304,-11.545385718
-2.10480927257,-9.80398702161,-1.41363154642,-11.7401979376
-5.0667330846,-1.21914341466,0.165893437557,-4.11501015725
0.631343103367,-0.0742998077258,-0.684581578467,-4.55982237685
0.449419291337,-2.92945620078,-0.35505659449,-6.69463459646
0.787495479304,-7.44461259384,-2.21553161051,-7.38944681606
-5.48442833273,-7.7997689869,-1.57600662654,-8.72425903566
-6.42635214476,-4.81492537996,0.583518357442,-8.65907125526
-9.28827595679,-2.43008177302,1.43304334142,-7.84388347487
-4.91019976882,-5.21523816609,1.4425683254,-8.41869569447
-3.55212358085,-0.200394559142,0.612093309373,-4.66350791407
-1.52404739288,2.28444904779,-0.978381706647,-2.82832013367
-4.87597120491,-0.800707345261,-1.87885672267,-3.89313235328
-4.04789501694,-2.71586373833,-0.119331738695,-3.17794457288
0.260181171026,-3.09102013138,1.04019324528,-0.152756792481
-6.561742641,2.72382347556,2.39971822926,2.19243098792
-6.21366645303,4.0486670825,2.14924321324,0.257618768313
-5.51559026507,4.14351068944,3.61876819722,3.16280654871
-4.5575140771,2.21835429638,1.05829318119,3.47799432911
-2.12943788913,4.86319790332,0.877818165171,6.7731821095
4.97863829884,4.12804151026,0.487343149147,7.8683698899
9.23671448681,4.4028851172,-0.233131866875,6.8735576703
5.03479067478,1.69772872414,-0.343606882898,8.2787454507
-0.77713313725,1.32257233108,-0.08408189892,7.37393323109
11.1009430507,5.15741593802,2.09544308506,8.95912101149
15.5990192387,1.53225954496,1.57496806904,7.40430879189
6.53709542665,1.6971031519,2.02449305301,6.14949657229
-1.01482838537,6.51194675884,2.46401803699,7.74468435268
0.0232478025937,2.77679036578,1.76354302097,2.40987213308
1.47132399056,1.93163397272,-0.00693199505804,2.16505991348
1.93940017853,2.42647757966,-0.707407011079,4.92024769388
-3.78252363349,1.9013211866,-1.2078820271,6.75543547427
-0.974447445529,1.27616479354,-0.918357043125,6.60062325467
-0.196371257556,6.91100840048,0.951167940852,8.79581103507
-0.108295069589,6.26585200742,-0.399307075169,6.21099881547
1.62978111838,-2.08930438564,-1.26978209119,5.06618659586
2.34785730635,3.0155392213,0.489742892783,4.74137437626
0.395933494317,3.31038282824,0.439267876762,4.02656215666
0.324009682288,2.08522643518,-0.421207139261,3.36174993706
3.11208587026,-0.299929957884,-0.111682155284,2.67693771745
5.86016205823,3.27491364906,-0.162157171308,4.71212549785
2.63823824619,1.629757256,-1.66263218733,4.66731327825
6.76631443416,4.15460086294,0.946892796648,5.03250105864
3.88439062213,3.37944446988,1.22641778063,4.04768883904
10.2324668101,5.01428807682,0.145942764602,7.38287661944
17.7805429981,8.30913168376,-0.19453225142,12.6480643998
16.948619186,12.1939752907,1.03499273256,14.3732521802
3.30946947676,2.92605741281,-2.04004723837,-1.89839026163
3.93052236885,4.68317166615,-2.46212326612,0.164201268082
7.83157526095,-0.0197140805103,-3.74419929386,1.37679279779
1.13262815305,-2.71259982717,-4.0962753216,-1.0506156725
-2.65631895485,3.11451442618,-4.50835134934,1.16197585721
-4.13526606275,-7.91837132048,-6.09042737708,-5.19543261308
-8.99421317066,-1.98125706714,-1.49250340483,-3.00284108336
-2.79316027855,-9.8441428138,-4.35457943257,-5.83024955365
-2.51210738646,-4.33702856045,-2.36665546031,-3.62765802394
-2.03105449436,1.33008569289,0.241268511947,1.78493350577
0.259998397742,-2.70280005377,-1.08080751579,-1.78247496452
-6.11894871016,-0.255685800432,-0.922883543537,-0.18988343481
-3.64789581806,-3.70857154709,-1.14495957128,3.2827080949
-6.18684292597,-6.09145729375,-1.30703559902,-0.374700375389
-2.64579003386,0.475656959596,1.31088837323,4.67789115432
-1.46473714177,-1.59722878706,0.258812345493,2.86048268403
3.01631575033,-1.58011453372,0.516736317752,5.27307421374
0.45736864243,-0.473000280381,2.10466029001,3.74566574345
-1.20157846548,1.99411397296,3.26258426227,5.42825727316
2.33947442663,2.1412282263,1.63050823452,4.63084880288
1.07052731873,-0.581657520357,1.64843220678,1.82344033259
-7.26841978918,5.20545673298,2.92635617904,2.3660318623
-1.80736689708,8.32257098633,4.7742801513,6.50862339201
2.81368599502,9.10968523967,6.23220412356,6.45121492172
3.67473888712,11.736799493,6.40012809581,10.3238064514
7.21579177922,14.3439137464,6.02805206807,12.7863979811
6.93684467131,12.5710279997,4.65597604033,12.5889895108
4.95789756341,11.218142253,3.89390001259,6.92158104056
7.00895045551,5.45525650638,2.89182398485,1.96417257027
6.30000334761,2.18237075972,1.4097479571,1.63676409998
3.74105623971,3.82948501306,3.52767192936,1.08935562969
6.4621091318,5.73659926641,3.79559590162,6.3719471594
9.2431620239,2.93371351975,1.56351987388,7.67453868911
7.534214916,6.50082777309,1.33144384614,5.28713021882
2.5852678081,5.12794202643,-0.480632181607,3.23972174853
2.8063207002,2.69505627977,-0.792708209348,2.78231327825
-1.2526264077,2.75217053311,1.93521576291,0.844904807956
-1.6915735156,-0.300715213547,0.593139735167,-2.70250366233
-5.50052062351,-5.36360096021,-1.01893629257,-4.16991213262
-3.64946773141,-0.496486706863,0.808987679684,-0.837320602912
0.431585160692,1.01062754648,1.54691165194,1.3352709268
-0.167361947209,-0.32225820018,-2.4351643758,1.09786245651
4.22369094489,6.28485605316,-1.09724040354,4.44045398622
4.30474383699,8.96197030651,0.640683568714,5.23304551593
5.37579672908,2.34908455985,-2.08139245903,0.965637045642
5.31684962118,0.196198813192,-0.323468486771,-0.431771424647
1.92790251328,-1.28668693347,-0.275544514512,-1.31917989494
9.89895540538,0.670427319874,-0.947620542254,0.653411634774
13.4700082975,0.337541573215,-3.74969657,3.40600316449
10.7510611896,3.03465582656,-3.17177259774,2.0585946942
4.28211408168,-1.3082299201,-2.50384862548,-4.01881377609
1.12316697377,-8.45111566676,-3.41592465322,-5.12622224638
4.15421986587,-4.46400141342,-3.90800068097,-3.15363071667
1.36527275797,-3.91688716008,-3.49007670871,-5.34103918696
-1.05367434993,-2.89977290674,-2.24215273645,-4.16844765725
7.04737854217,-7.33265865339,-3.62422876419,-3.51585612754
3.61843143426,-7.59554440005,-3.80630479193,-4.69326459783
5.68948432637,-3.84843014671,-3.24838081968,-0.950673068119
3.24053721846,-0.661315893369,-0.880456847417,-0.0480815384071
5.04159011056,-2.30420164003,-0.372532875161,-2.0554900087
2.88264300266,-0.907087386684,1.1453910971,-1.77289847899
0.233695894756,0.670026866657,2.77331506936,-0.740306949276
2.52474878686,6.17714112,4.27123904161,2.50228458044
0.435801678952,-0.49574462666,2.00916301387,-2.24512388985
-6.92314542895,-3.11863037332,2.72708698613,-2.97253236014
-8.54209253685,-1.66151611997,3.77501095839,-5.87994083043
-9.38103964475,-2.22440186664,3.12293493064,-3.89734930072
-10.1999867527,0.442712386706,3.2708589029,0.175242228988
-11.1189338606,-2.94017335995,3.35878287516,-6.2821662413
-6.68788096846,-0.743059106608,2.93670684742,-4.76957471159
-10.3868280764,-4.77594485327,2.15463081968,-7.44698318188
-11.8657751843,-3.12883059993,3.31255479193,-6.10439165217
-5.77472229216,-2.70171634658,1.37047876419,-4.75180012246
-6.34366940006,-0.154602093244,2.85840273645,-2.57920859275
-7.63261650796,1.3225121601,3.48632670871,-5.00661706304
-0.621563615863,3.09962641344,3.72425068097,-5.19402553333
-9.08051072377,0.636740666781,4.39217465322,-5.95143400362
-3.58945783167,-8.31614507987,2.47009862548,-8.3788424739
-2.74840493957,-4.99903082653,1.03802259774,-6.89625094419
-1.93735204747,-5.97191657319,0.0359465699967,-7.31365941448
-10.4362991554,-9.75480231985,-0.796129457745,-11.1110678848
-4.14524626328,-4.93768806651,-0.578205485488,-9.33847635506
-13.3841933712,-12.1505738132,-4.04028151323,-11.0958848254
-10.8731404791,-15.2034595598,-5.43235754097,-14.9532932956
-14.322087587,-12.9963453065,-5.92443356871,-15.1707017659
-2.80103469488,-9.47923105314,-4.76650959645,-9.59811023622
-5.24998180278,-12.8021167998,-4.3885856242,-8.96551870651
-5.02892891068,-7.22500254646,-2.80066165194,-6.1629271768
-1.06787601859,-5.01788829311,-1.82273767968,-6.09033564709
-3.95682312649,-4.25077403977,0.0351862925763,-3.57774411738
-6.44577023439,-5.62365978643,-0.416889735166,-2.27515258767
-12.6947173423,-8.13654553309,-1.95896576291,-4.97256105795
-6.35366445019,-6.31943127975,-0.33104179065,-5.04996952824
-6.0126115581,2.36768297359,-1.16311781839,-2.58737799853
-0.501558665997,-6.13520277306,-2.79519384614,-5.10478646882
-5.1405057739,-4.17808851972,-1.54726987388,-2.77219493911
-4.8594528818,-4.80097426638,-1.40934590162,-3.4796034094
-5.3983999897,-2.93386001304,-1.03142192936,-1.72701187969
-3.5173470976,-0.746745759698,-2.2234979571,-1.58442034998
-0.726294205506,-0.379631506356,-3.42557398485,-1.53182882027
-2.5752413134,-5.35251725301,-3.22765001259,-1.90923729056
6.42581157869,-2.97540299967,-3.80972604033,-0.176645760848
-2.41313552921,2.27171125367,-2.23180206807,0.515945768863
0.327917362887,0.488825507011,-2.00387809581,3.87853729857
4.08897025499,3.51593976035,-0.555954123556,5.79112882828
2.50002314709,7.95305401369,0.471969848701,6.893720358
3.15107603918,1.42016826704,-0.23010617904,3.36631188771
13.3421289313,4.44728252038,-1.61218220678,6.54890341742
3.58318182338,4.54439677372,-0.384258234526,7.47149494713
1.74423471548,2.57151102706,-0.496334262267,1.35408647684
7.33528760758,4.4386252804,-0.94841029001,3.77667800655
4.98634049968,5.76573953375,-0.440486317751,7.55926953626
11.4773933918,2.40285378709,0.00743765450716,4.26186106597
8.40844628387,5.04996804043,-0.644638373236,7.68445259568
4.14949917597,5.59708229377,1.01328559902,6.17704412539
6.64055206807,1.76419654712,0.72120957128,3.4996356551
-1.32839503983,1.24131080045,0.469133543538,0.782227184814
0.142657852266,0.538425053797,-0.272942484204,3.66481871452
-2.05628925564,-2.00446069286,-0.945018511946,-0.212589755765
3.87476363646,3.51265356048,0.262905460311,0.930001773945
-1.45418347144,2.15976781382,-0.36917056743,0.292593303656
2.80686942066,2.59688206716,0.878753404826,2.26518483337
3.12792231276,7.72399632051,3.09667737708,7.30777636308
7.65897520486,12.1111105738,3.15460134934,10.1103678928
12.290028097,12.3082248272,1.9725253216,13.4029594225
7.46108098905,6.74533908053,3.56044929386,9.31555095221
2.48213388115,7.74245333387,4.13837326612,9.65814248192
2.38318677325,7.03956758721,4.55629723837,9.69073401163
3.99543797536,0.286734854453,-0.898175976925,4.27903225806
1.12112918275,3.20704827747,0.650108128786,3.48436599553
5.66682039014,4.91736170049,4.1583922345,6.90969973301
