46.3016424419,47.4488590116,-33.0202579942,35.937525436
30.8450454644,41.2605871177,-31.9119234687,31.8153732146
27.678448487,43.4823152239,-28.9735889432,28.6932209932
28.3218515096,44.18404333,-24.8552544177,28.6210687717
29.3852545321,48.2157714361,-19.0269198922,33.3189165503
31.0486575547,36.2874995422,-20.4485853667,28.2167643289
24.5320605773,33.0292276483,-20.3302508412,19.3546121074
19.6354635998,34.9409557544,-17.9219163157,24.062459886
18.7988666224,28.3526838606,-18.7835817902,18.3503076646
21.822269645,25.3644119667,-16.1552472647,16.4381554431
17.9456726676,29.4161400728,-15.0569127392,19.2460032217
15.9290756901,24.4878681789,-12.6285782137,15.7638510003
11.1824787127,25.429596285,-11.3202436882,15.5516987788
10.8558817353,24.1413243911,-12.8519091627,16.0795465574
9.25928475783,20.8030524973,-12.9735746372,10.187394336
9.0526877804,19.5147806034,-11.1552401117,11.9052421145
3.09609080297,10.0865087095,-10.2469055862,7.0430898931
1.56949382554,7.1182368156,-9.6985710607,4.97093767167
2.87289684811,7.16996492172,-8.0802365352,5.49878545023
4.45629987068,7.34169302784,-6.7719020097,5.8866332288
3.99970289324,6.22342113395,-4.44356748421,6.05448100737
6.24310591581,1.96514924007,-3.93523295871,7.79232878593
2.09650893838,3.89687734618,-3.25689843321,5.6301765645
5.30991196095,2.5386054523,-3.80856390771,5.72802434307
0.713314983521,1.12033355842,-3.68022938221,6.81587212163
3.47671800609,4.52206166453,-2.08189485671,11.2837199002
0.58012102866,5.58378977065,-1.53356033121,9.48156767876
1.40352405123,-2.19448212324,-1.52522580571,2.89941545733
-0.303072926202,-3.07275401712,-1.55689128021,4.0272632359
-3.99966990363,-9.511025911,-0.898556754715,-5.75488898553
-2.58626688106,-11.4192978049,0.829777770785,-4.89704120696
-4.42286385849,-18.2575696988,0.168112296284,-6.5991934284
-5.16946083593,-16.3258415927,1.36644682178,-7.77134564983
-9.15605781336,-16.0941134865,3.36478134728,-9.95349787127
-0.092654790787,-14.7623853804,6.39311587278,-9.1356500927
-8.61925176822,-13.5106572743,7.14145039828,-9.41780231414
-9.81584874565,-20.7689291682,5.71978492378,-14.3199545356
-16.9524457231,-21.5172010621,4.70811944928,-14.202106757
-11.1790427005,-18.465472956,7.71645397478,-14.9242589784
-11.0956396779,-20.4937448498,6.62478850028,-16.2564111999
-10.8422366554,-19.2820167437,5.72312302577,-16.8885634213
-9.7788336328,-18.5802886376,7.81145755128,-17.3507156427
-6.20543061023,-17.4285605315,11.0197920768,-13.0228678642
-10.3120275877,-13.5768324254,11.7681266023,-11.2050200856
-12.9086245651,-18.4451043193,10.6564611278,-16.377172307
-10.4352215425,-13.7933762131,13.5947956533,-14.4693245285
-13.75181852,-9.44164810703,16.4931301788,-9.40147674991
-11.7284154974,-14.1799200009,15.9214647043,-12.6536289713
-12.7050124748,-13.7881918948,14.5697992298,-15.2357811928
-13.6316094523,-12.4164637887,14.7781337553,-12.7479334142
-12.7882064297,-15.5447356826,15.5764682808,-15.8200856356
-11.4348034071,-13.7030075765,18.7848028063,-15.6522378571
-15.0414003845,-18.5912794703,18.5931373318,-14.6543900785
-12.637997362,-17.8195513642,16.7914718573,-16.7065422999
-10.3445943394,-16.8478232581,15.3298063828,-14.2786945214
-6.24119131684,-13.936095152,16.8581409083,-12.1208467428
-12.2477882943,-15.3843670459,18.8364754338,-10.4729989642
-12.4343852717,-19.3326389398,19.9248099593,-10.5751511857
-10.1809822491,-16.2609108336,21.1131444848,-3.45730340711
-17.1475792266,-19.6291827275,19.6714790103,-8.27945562854
-18.364176204,-20.3174546214,17.8798135358,-10.94160785
-16.2707731814,-24.1757265153,15.2481480613,-13.2537600714
-12.9073701589,-21.5739984092,14.7464825868,-15.8459122928
-9.36396713628,-23.1722703031,15.3548171123,-15.6480645143
-13.4605641137,-25.6505421969,13.6731516378,-17.0902167357
-20.2471610911,-25.6888140908,14.7814861633,-16.7423689571
-17.4537580686,-24.5570859847,15.6398206888,-15.2345211786
-13.060355046,-22.7453578786,15.0281552143,-12.1166734
-12.2869520234,-24.5636297725,13.8264897397,-13.6288256214
-28.1235490009,-19.1719016664,16.4948242652,-14.0409778429
-18.7901459783,-12.6401735602,16.4431587907,-9.22313006431
-22.6667429557,-24.1884454541,14.4614933162,-14.7752822857
-23.6433399332,-25.586717348,15.3198278417,-18.3874345072
-18.5999369106,-24.3249892419,15.6681623672,-20.6095867286
-14.786533888,-24.0132611358,14.8964968927,-18.47173895
-12.2231308655,-21.1415330297,14.3248314182,-16.8538911715
-13.8397278429,-21.5998049235,15.2531659437,-16.7960433929
-17.5663248203,-18.8480768174,19.1115004692,-13.8581956143
-16.8629217977,-11.2163487113,20.7298349947,-8.95034783578
-9.26951877518,-10.5146206052,17.4381695202,-7.06250005721
-5.87611575261,-12.2928924991,14.2465040457,-8.25465227864
-6.18271273004,-11.771164393,13.2948385712,-7.12680450008
-15.5293097075,-17.9794362869,7.54317309674,-14.2089567215
-10.1359066849,-18.9977081807,6.25150762224,-19.6511089429
-14.5725036623,-16.4859800746,7.15984214774,-16.9032611644
-13.1491006398,-14.4742519685,6.11817667323,-13.1854133858
-19.8656976172,-19.6225238624,3.64651119873,-17.1775656072
-21.5022945946,-16.2007957563,3.30484572423,-14.4597178287
-11.5688915721,-16.2090676502,1.48318024973,-10.4918700501
-7.35548854949,-11.137339544,0.71151477523,-7.04402227155
-6.20208552692,-8.50561143792,-1.27015069927,-5.93617449298
-5.46868250435,-12.2838833318,-1.61181617377,-11.2383267144
-9.16527948178,-8.40215522569,-0.193481648272,-11.6104789358
-9.18187645921,-6.99042711958,-0.875147122772,-9.07263115728
-4.29847343664,-0.698699013459,0.313187402726,-7.49478337872
-1.55507041407,2.07302909266,-0.0984780717754,-3.10693560015
-0.131667391503,6.48475719877,-0.170143546275,1.69091217842
2.67173563107,1.53648530489,-2.73180902078,1.60875995699
10.8251386536,3.618213411,-3.03347449528,1.91660773555
8.0385416762,5.72994151712,-3.85513996978,1.01445551412
3.22194469877,-0.638330376762,-5.85680544428,-2.35769670732
4.26534772134,-1.11660227065,-7.94847091878,-4.95984892875
4.05875074391,1.32512583547,-7.89013639328,-0.282001150183
11.7821537665,2.87685394159,-8.81180186778,1.16584662838
6.87555678905,4.1585820477,-7.73346734228,3.97369440694
8.62895981162,7.67031015382,-6.60513281678,7.47154218552
0.462362834188,11.0320382599,-6.43679829128,6.44938996409
12.5857658568,4.62376636605,-9.95846376578,3.57723774265
14.8791688793,10.5554944722,-9.72012924029,7.54508552122
10.8025719019,12.9572225783,-11.7217947148,6.86293329978
8.24597492447,13.9289506844,-13.8334601893,7.55078107835
11.609377947,9.89067879051,-13.8751256638,6.61862885692
15.6927809696,17.0024068966,-8.67679113829,14.0964766355
15.8861839922,11.9141350027,-10.5684566128,11.514324414
4.44958701474,17.6858631089,-12.3601220873,11.9921721926
8.15299003731,22.497591215,-13.8917875618,16.4100199712
13.0663930599,25.1493193211,-13.3934530363,19.5278677497
19.5097960824,21.7310474272,-13.4751185108,19.4557155283
20.553199105,19.0827755333,-17.3067839853,16.1735633069
22.3566021276,27.2045036394,-16.5384494598,21.8014110854
17.5600051502,29.8262317456,-12.5401149343,23.109258864
15.7834081727,32.5179598517,-11.4617804088,23.1871066426
22.1268111953,35.3196879578,-12.3434458833,29.4149544211
22.9602142179,34.0314160639,-16.5751113578,32.9528021997
25.0736172404,37.68314417,-17.9967768323,32.0706499783
26.027020263,40.7248722761,-18.2084423068,31.3684977568
24.1204232856,32.7066003823,-20.0801077813,25.2963455354
27.0338263081,36.4083284884,-19.6617732558,26.224193314
5.40498546512,1.69057412791,28.1786773256,11.8232267442
6.02473840071,3.69978875778,26.8258044543,13.7545231242
4.2244913363,5.67900338766,25.632931583,14.1658195042
6.43424427188,7.43821801754,26.9600587118,15.0571158842
1.08399720747,2.86743264741,25.2971858405,10.4384122642
2.30375014306,11.2966472773,25.4243129692,11.8097086442
1.56350307865,-7.49413809284,20.481440098,4.19100502425
-1.63674398576,-10.844923463,17.2285672267,3.48230140426
2.20300894983,-1.64570883309,18.2256943554,5.00359778428
-1.40723811458,-3.59649420321,14.4828214842,8.09489416429
6.97251482101,3.59272042666,12.3899486129,9.7061905443
8.66226775659,13.5119350565,16.2970757416,13.5774869243
6.51202069218,9.79114968641,17.6042028704,13.8787833043
4.76177362777,-1.00963568371,11.9613299991,11.3100796843
7.17152656336,6.35957894617,12.3584571278,13.1213760644
8.70127949895,0.0987935760409,10.0455842565,10.9826724444
11.4910324345,0.118008205916,8.13271138528,9.73396882438
5.72078537013,0.957222835792,6.71983851401,5.67526520439
2.67053830572,2.71643746567,5.41696564274,2.12656158441
2.6402912413,-1.60434790446,2.78409277147,0.33785796442
1.23004417689,-1.13513327458,3.52121990021,0.899154344435
-1.15020288752,-1.36591864471,2.83834702894,-1.52954927555
2.55955004807,-6.87670401483,0.275474157666,-1.51825289554
-2.68069701634,4.56251061504,2.5326012864,0.873043484469
-4.76094408075,-3.53827475508,0.219728415128,-6.60566013552
-1.57119114516,-3.9390601252,1.94685554386,-4.48436375549
-7.50143820958,-1.61984549533,2.30398267259,-1.44306737549
-10.391685274,-14.0606308655,-4.12889019868,-9.68177099548
-12.4819323384,-13.9114162356,-6.90176306995,-11.4004746155
-13.3321794028,-18.7822016057,-10.7546359412,-14.7691782354
-8.98242646722,-1.80298697583,-5.89750881249,-4.36788185544
-6.86267353163,2.76622765405,-6.73038168375,-1.50658547543
-0.812920596044,-4.14455771608,-9.64325455502,-2.01528909541
-2.51316766046,-7.1853430862,-10.8661274263,-4.2439927154
-3.46341472487,-0.826128456325,-8.43900029756,-2.31269633539
-4.14366178928,-5.49691382645,-10.9218731688,-6.47139995537
-4.28390885369,-7.22769919657,-14.5347460401,-10.9801035754
-3.0341559181,-8.8484845667,-14.4976189114,-8.82880719534
-3.51440298251,-8.15926993682,-11.5104917826,-9.51751081533
2.69534995308,-5.06005530695,-11.5433646539,-6.78621443531
-1.73489711133,-2.34084067707,-12.2962375252,-1.7949180553
-2.74514417574,-2.5616260472,-11.9691103964,-2.4836216753
2.85460875984,4.17758858268,-11.6219832677,0.757674704713
4.12436169543,-5.53319678745,-14.304856139,-2.90102891526
4.65411463102,-3.72398215757,-12.8377290103,-4.32973253525
6.52386756661,-2.4747675277,-13.1906018815,-4.22843615524
4.5036205022,-0.25555289782,-11.0234747528,-3.37713977523
-2.55662656221,0.793661732055,-11.0563476241,-6.90584339522
-1.78687362662,-1.66712363807,-13.1492204953,-7.7745470152
-2.05712069104,1.18209099181,-14.3220933666,-4.70325063518
-0.0573677554476,-5.99869437832,-16.6949662379,-8.83195425518
-0.327614819858,1.08052025156,-13.1978391091,-4.63065787516
0.0021381157303,1.76973488143,-11.4907119804,-4.24936149515
-1.79810894868,6.00894951131,-6.42358485167,-2.40806511514
-3.76835601309,10.7881641412,-5.15645772294,-3.22676873513
-4.3086030775,3.55737877106,-8.31933059421,-4.11547235512
-6.86885014191,10.5465934009,-8.84220346548,2.9658240249
0.460902793674,11.0758080308,-9.34507633675,-1.45287959508
1.33065572926,-11.0049773393,-16.077949208,-12.3515832151
2.08040866485,-6.38576270944,-14.5908220793,-9.06028683506
-5.07983839956,1.60345192044,-16.1836949506,-9.72899045504
-4.93008546397,2.54266655031,-15.1865678218,-9.00769407503
-6.48033252838,7.18188118019,-12.2494406931,-5.31639769502
-0.650579592794,5.45109581006,-10.3123135644,-5.375101315
1.39917334279,1.83031043994,-9.11518643563,-8.01380493499
-2.56107372162,1.88952506981,-7.9380593069,-5.16250855498
-4.24132078603,13.2787396997,-6.52093217817,1.76878782503
-1.99156785044,13.5479543296,-6.52380504944,3.18008420504
-0.10181491485,10.6971689594,-5.95667792071,1.46138058506
-3.48206197926,-0.993616410684,-9.42955079197,-6.19732303493
-7.04230904367,0.155598219191,-9.95242366324,-4.15602665491
-4.74255610808,2.96481284907,-9.64529653451,-0.674730274899
1.4171968275,0.104027478942,-10.3281694058,-2.45343389489
2.19694976309,0.543242108817,-11.141042277,-1.78213751488
6.65670269868,1.54245673869,-12.7639151483,-0.320841134861
7.43645563427,-2.68832863143,-13.0167880196,0.270455245147
6.08620856986,2.98088599844,-9.06966089086,2.28175162516
6.36596150545,9.84010062832,-5.32253376213,4.01304800518
7.70571444104,11.3293152582,-4.5754066334,4.10434438519
2.64546737662,5.30852988807,-5.13827950466,0.445640765196
7.91522031221,9.95774451795,-5.95115237593,1.94693714521
3.7749732478,3.55695914782,-6.5940252472,-3.41176647477
4.81472618339,6.2061737777,-4.22689811847,-3.70047009476
-1.44552088102,7.40538840757,-0.50977098974,-4.49917371475
-4.38576794543,9.97460303745,0.757356138991,-0.877877334729
-8.09601500984,-2.86618233268,-4.81551673228,-4.69658095472
-5.68626207425,1.6030322972,-6.65838960355,-1.78528457471
-5.60650913867,2.80224692707,-4.95126247482,-3.29398819469
4.84324379692,4.72146155695,1.12586465392,-0.34269181468
2.76299673251,4.60067618682,3.68299178265,1.95860456533
1.7727496681,9.0898908167,7.41011891138,1.82990094534
0.332502603689,5.47910544658,5.69724604011,-1.53880267464
-1.14774446072,2.58832007645,3.25437316884,-0.0775062946268
-1.17799152513,1.08753470633,0.991500297569,-3.67620991462
-7.36823858954,-7.9032506638,-0.671372573699,-8.0949135346
-2.94848565396,-2.59403603392,0.585754555032,-8.40361715459
-0.258732718367,-5.79482140405,-4.87711831624,-8.08232077458
-6.55897978278,-6.53560677417,-5.07999118751,-6.13102439457
-7.81922684719,-5.9163921443,-1.27286405878,-8.06972801455
-6.7094739116,-8.06717751442,-2.10573693004,-8.20843163454
-10.869720976,-16.4579628845,-4.34860980131,-11.8871352545
-10.3899680404,-8.94874825467,-2.10148267258,-6.60583887451
-1.86021510484,-0.239533624795,-3.43435554385,-2.4645424945
-2.73046216925,-9.46031899492,-6.05722841512,-5.66324611449
-6.41070923366,-11.121104365,-4.50010128639,-9.77194973448
-3.10095629807,-12.3518897352,-4.53297415766,-6.30065335446
-3.60120336248,-1.72267510529,0.754152971074,1.26064302555
-6.07145042689,-1.07346047542,3.63128009981,0.371939405566
-3.7716974913,-5.91424584554,1.24840722854,-3.73676421442
-5.34194455571,1.65496878433,3.67553435727,-1.76546783441
0.977808379874,-1.60581658579,3.532661486,1.19582854561
0.677561315462,-5.21660195592,3.83978861473,0.967124925621
-4.17268574895,-6.26738732604,7.38691574346,-1.10157869437
-3.53293281336,-7.99817269616,7.75404287219,-2.71028231436
-2.20317987777,-8.33895806629,5.46117000092,-3.23898593435
-3.45342694218,-7.89974343641,6.90829712965,-5.26768955433
1.25632599341,-15.1305288065,4.06542425838,-4.70639317432
2.60607892899,-1.43131417666,8.92255138712,4.21490320569
7.40583186458,-4.74209954679,10.0796785158,7.84619958571
-0.154415199827,-4.95288491691,11.3868056446,6.66749596572
5.65533773576,-0.283670287036,13.8839327733,10.3787923457
9.44509067135,4.17554434284,18.831059902,18.4800887257
9.03484360694,5.24475897271,20.2281870308,21.4713851058
10.5545965425,6.20397360259,19.2653141595,17.8626814858
10.5643494781,10.4431882325,23.0324412882,20.3239778658
11.8341024137,12.9124028623,27.109568417,22.4252742458
12.7638553493,17.2916174922,28.6866955457,24.5365706258
12.2436082849,8.72083212209,26.0638226744,20.5578670058
-8.54848110465,-10.6639244186,14.9845239826,-4.15077761629
-7.02815561481,-8.31961679981,13.4906965872,-0.853510203036
-7.37783012498,-7.53530918101,11.4868691918,-1.52624278979
-6.28750463514,-2.82100156221,12.4830417964,-1.95897537654
-4.9171791453,-6.17669394342,10.379214401,-1.7517079633
-4.21685365546,-7.96238632462,9.65538700558,-1.98444055005
-1.59652816563,-12.9480787058,5.28155961019,-5.9871731368
-5.49620267579,-7.94377108703,6.01773221479,-5.79990572355
-1.78587718595,-5.03946346823,1.0839048194,-3.9326383103
-2.35555169612,-12.1551558494,-0.669922575997,-7.13537089705
-4.35522620628,-16.8708482306,-1.11374997139,-8.06810348381
-8.17490071644,-9.37654061184,0.252422633213,-8.45083607055
-5.01457522661,-21.182232993,-3.82140476218,-15.1935686573
-4.35424973677,-9.80792537424,2.08476784243,-11.2463012441
-5.91392424693,-3.86361775545,4.07094044703,-10.8690338308
-8.72359875709,-13.8993101367,0.817113051637,-13.9717664176
-12.2732732673,-8.82500251785,2.01328565624,-9.30449900431
-7.45294777742,-2.61069489906,5.16945826085,-7.70723159106
-8.47262228758,-9.87638728026,1.59563086545,-13.1699641778
-12.9622967977,-9.66207966146,0.861803470058,-14.2026967646
-13.8719713079,-2.83777204267,3.30797607466,-14.0754293513
-17.8216458181,-9.99346442387,4.03414867927,-17.9781619381
-11.7313203282,-6.59915680507,3.25032128387,-15.8208945248
-10.0509948384,-4.67484918627,2.92649388848,-14.5736271116
-6.10066934856,3.45945843252,5.32266649308,-7.25635969832
-2.70034385872,7.86376605132,5.19883909769,-6.12909228507
-2.71001836889,-6.31192632988,-1.3049882977,-11.4318248718
-5.11969287905,-6.80761871109,-1.2788156931,-11.4645574586
-5.75936738921,0.126688907709,1.00735691151,-6.59729004533
-10.8690418994,-0.889003473494,-1.19647048389,-9.36002263208
-6.79871640954,2.3153041453,-1.79029787928,-6.82275521883
-3.1483909197,-2.7603882359,0.0258747253229,-9.22548780559
2.92193457013,1.7739193829,2.84204732993,-4.50822039234
0.712260059971,8.36822700169,2.91821993453,1.12904702091
-1.53741445019,7.53253462049,4.29439253914,-2.92368556584
-0.917088960355,5.38684223929,5.14056514375,-1.05641815259
-1.42676347052,-2.52885014192,2.44673774835,-3.43915073934
-3.89643798068,-1.69454252312,1.87291035296,-4.27188332609
-0.656112490844,2.23976509568,7.41908295756,-0.124615912842
1.23421299899,9.61407271448,9.08525556217,0.0026515004065
-2.46546151117,-1.39161966673,1.75142816677,-6.33008108635
-0.655136021332,8.58268795207,2.98760077138,1.9971863269
2.26518946851,-4.27300442913,-2.92622662402,-0.115546259854
0.865514958341,0.421303189663,-2.29005401941,0.231721153395
5.00584044818,5.13561080846,-1.41388141481,5.31898856664
0.816165938016,5.48991842726,-3.2877088102,9.2262559799
0.686491427853,16.1742260461,-4.4415362056,14.3135233931
0.64681691769,7.54853366485,-4.74536360099,14.2307908064
4.36714240753,14.0028412836,-2.14919099638,18.1780582196
4.72746789736,16.2571489024,-1.81301839178,19.2853256329
6.2777933872,19.1914565212,0.233154212827,19.9025930461
5.21811887704,11.78576414,-3.23067318257,16.2098604594
6.22844436688,15.4300717588,-3.55450057796,18.6371278726
7.21876985671,9.14437937763,-6.92832797336,16.9543952859
4.72909534655,8.82868699643,-9.06215536875,13.7416626991
11.5494208364,7.22299461523,-10.5959827641,7.62893011238
7.88974632622,1.94730223402,-15.0398101595,0.986197525635
11.1700718161,5.63160985282,-11.5236375549,6.83346493887
7.7803973059,17.9059174716,-6.15746495033,16.3907323521
14.0207227957,23.5102250904,-6.86129234572,19.5279997654
13.3810482856,6.92453270921,-11.5751197411,14.6052671786
10.3913737754,7.54884032801,-11.4389471365,16.0225345919
2.82169926525,8.8931479468,-13.1327745319,9.93980200512
6.32202475508,5.9374555656,-13.5466019273,10.2370694184
9.65235024492,15.2417631844,-7.0404293227,20.0843368316
8.32267573476,8.6460708032,-9.33425671809,16.6816042449
14.7430012246,7.70037842199,-6.01808411349,18.0088716581
14.1533267144,20.3546860408,-2.12191150888,24.7561390714
16.1736522043,15.8189936596,-3.56573890428,21.6834064846
20.2639776941,5.60330127838,-9.97956629967,14.7706738979
20.5443031839,11.4976088972,-5.10339369506,18.7579413111
16.3446286738,14.331916516,-3.99722109046,16.8952087244
14.7449541636,0.746224134774,-7.57104848585,11.2024761376
18.3052796535,6.02053175357,-3.76487588125,10.2297435509
23.1456051433,1.43483937237,-3.81870327664,8.50701096411
17.6959306331,2.77914699116,-4.66253067204,13.6842783773
14.536256123,-1.85654539004,-5.48635806743,9.9415457906
13.8965816128,-0.672237771242,-5.03018546283,2.43881320384
10.7269071026,3.08206984755,-5.09401285822,1.5860806171
7.04723259247,-1.78362253365,-8.23784025361,-1.06665196965
8.77755808231,2.26068508515,-4.54166764901,2.01061544359
9.83788357215,14.1449927039,-0.175495044405,7.74788285684
14.378209062,-5.55069967726,-9.6493224398,1.63515027009
11.0585345518,-5.23639205846,-9.13314983519,-0.31758231666
11.1288600417,-0.672084439664,-4.31697723059,0.699685096588
10.4691855315,14.1822231791,2.99919537402,13.3669525098
5.37951102133,6.98653079793,-0.934632021375,10.2442199231
4.62983651117,9.15083841673,-2.88845941677,9.77148733633
7.65016200101,14.3151460355,-0.562286812165,12.7087547496
12.2004874908,11.4094536543,-0.266114207559,12.9960221628
13.6108129807,7.61376127312,-0.909941602955,13.2032895761
6.22113847052,8.23806889191,2.56623100165,10.6705569893
10.9014639604,2.35237651071,-0.647596393745,6.38782440258
10.8017894502,2.15668412951,-0.911423789139,8.75509181582
3.27211494003,1.5009917483,-3.29525118453,1.36235922907
1.16244042987,-13.1147006329,-7.77907857993,-6.82037335768
-1.9872340803,1.2996069859,-5.16290597532,0.0468940555729
-4.67690859046,-8.5560853953,-5.69673337072,-7.66583853118
-2.57658310062,-10.6417777765,-9.49056076611,-15.3185711179
-2.98625761079,-18.7274701577,-13.5643881615,-17.0813037047
-8.09593212095,-10.2131625389,-5.6482155569,-10.5540362914
-10.6356066311,-12.5388549201,-4.0820429523,-13.9867688782
-5.87528114127,-13.6845473013,-6.08587034769,-10.8495014649
-7.35495565144,-4.21023968252,-3.70969774308,-6.27223405169
-8.8746301616,-6.44593206373,-3.68352513848,-6.57496663844
-5.46430467176,-8.34162444493,-1.86735253387,-4.56769922519
-8.03397918193,-0.767316826132,-1.12117992927,-4.06043181194
-12.8736536921,5.59699079267,2.41499267534,-1.46316439869
-8.90332820225,-17.0687015885,-0.818834720058,-10.9958969854
-3.44300271242,-3.25439396974,6.18733788455,-0.538629572198
-6.56267722258,-7.83008635094,1.00351048915,-8.77136215895
-7.27235173274,2.91422126785,4.31968309376,-3.6440947457
-5.7720262429,-9.31147111335,3.36585569837,-4.58682733245
-5.85170075307,-9.15716349455,4.60202830297,-8.08955991921
-3.99137526323,-3.19285587576,6.07820090758,-8.74229250596
-3.40104977339,15.431451743,13.2843735122,4.32497490729
-5.18072428356,0.185759361837,8.15054611679,0.132242320542
-3.61039879372,-4.52993301937,7.57671872139,-2.00049026621
-7.53007330388,-9.72562540057,5.832891326,-10.593222853
-13.809747814,-7.17131778177,5.8690639306,-10.5759554397
-12.1894223242,-12.967010163,7.34523653521,-13.5186880265
-13.3390968344,-15.4927025442,10.7114091398,-17.6114206132
-15.9687713445,-2.34839492538,14.1275817444,-15.3041532
-15.0284458547,-15.0040873066,11.633754349,-17.7468857867
-15.2881203649,-8.13977968779,16.8899269536,-15.1696183735
-18.967794875,-5.72547206899,17.7760995582,-12.8523509602
-22.3074693852,-10.4211644502,17.3722721628,-17.325083547
-17.6271438953,-2.5368568314,16.7584447674,-11.3878161337
-6.65739098837,-16.0620276163,2.90856831395,2.63575581395
-1.42178000824,-6.07447353964,5.54296216924,7.01413958066
-1.59616902811,-8.00691946301,4.74735602453,4.50252334737
-2.73055804798,-14.5193653864,2.98174987983,0.610907114082
-3.17494706784,-13.4318113097,5.66614373512,-0.700709119214
-5.28933608771,-20.5942572331,-0.22946240959,-5.5823253525
-8.12372510758,-17.1667031565,-0.465068554298,-3.0339415858
-8.44811412745,-16.3691490798,0.809325300996,-4.79555781908
-8.11250314732,-11.0315950032,4.83371915629,-0.757174052371
-4.25689216719,-16.6340409266,1.88811301158,-1.89879028566
-3.33128118705,-17.3364868499,2.29250686687,-2.90040651895
-2.59567020692,1.3210672267,10.7269007222,5.83797724776
-4.46005922679,-5.71137869667,5.99129457746,1.02636101447
-4.65444824666,-12.04382462,2.23568843275,-2.35525521882
-2.43883726653,-9.0362705434,2.94008228804,-2.44687145212
-4.60322628639,-9.93871646676,2.87447614333,-0.368487685409
-2.73761530626,-0.401162390131,3.34886999862,2.6298960813
-6.38200432613,-9.5736083135,-0.406736146084,-2.91172015199
-4.966393346,-7.97605423686,-1.61234229079,-0.433336385278
-6.03078236587,1.11149983977,1.9220515645,-0.924952618567
-2.62517138573,6.89905391641,2.15644541979,2.49343114814
-0.269560405603,10.866607993,3.21083927509,5.21181491485
0.696050574529,-3.06583793032,-0.764766869625,1.73019868156
-1.35833844534,4.72171614631,3.79962698567,6.90858244827
-2.22272746521,6.02927022294,2.43402084096,5.76696621497
-0.00711648507604,-4.52317570042,-1.92158530375,-3.33465001832
1.69849449506,-0.135621623787,0.0328085515448,-1.9462662516
-1.77589452481,14.7919324528,5.84720240684,7.19211751511
-2.38028354468,3.06948652948,0.731596262129,2.50050128181
-0.714672564548,0.667040606116,1.38599011742,-0.811114951473
-1.10906158442,-9.62540531725,-1.53961602729,-3.16273118476
0.106549395716,-7.66785124062,-4.625222172,-4.95434741805
-4.31783962415,-4.39029716398,-4.6408283167,-5.44596365134
-4.98222864402,-10.3027430873,-5.21643446141,-8.10757988464
-3.54661766389,4.75481098929,-1.32204060612,1.35080388207
-3.25100668376,7.88236506592,-1.85764675083,-0.860812351224
-5.61539570362,-5.45008085744,-7.57325289553,-9.49242858451
-7.83978472349,-5.57252678081,-5.82885904024,-10.4840448178
-0.194173743362,-1.40497270418,-5.31446518495,-8.31566105109
2.14143723677,0.732581372459,-4.82007132966,-7.59727728438
-3.3529517831,1.89013544909,-4.07567747437,-9.00889351767
2.51265919703,-3.51231047427,-10.3112836191,-10.490509751
2.42827017717,-0.0347563976375,-8.98688976378,-6.98212598425
4.5138811573,7.332797679,-5.63249590849,-2.35374221754
3.82949213743,14.7703517556,0.121897946803,4.75464154917
3.36510311756,15.6079058323,-2.5837081979,6.47302531587
4.15071409769,8.6254599089,-0.659314342613,5.66140908258
2.30632507783,6.29301398553,0.0650795126803,4.25979284929
-0.618063942044,7.45056806217,-0.290526632027,-1.31182338399
4.09754703809,6.8781221388,-2.27613277674,-3.88343961728
8.60315801822,6.93567621544,-1.58173892144,-1.02505585057
6.81876899835,12.6732302921,0.732654933849,2.88332791613
9.75437997848,19.4207843687,2.38704878914,3.95171168284
8.39999095862,6.95833844534,-5.29855735557,1.14009544955
12.6256019387,4.68589252197,-4.87416350028,2.74847921626
11.6712129189,8.50344659861,-3.58976964498,3.94686298297
10.806823899,3.49100067524,-4.77537578969,-2.33475325032
7.57243487914,4.28855475188,-3.9709819344,-2.84636948361
7.66804585927,14.6861088285,-0.766588079106,2.3620142831
7.74365683941,-0.966337094855,-6.17219422381,-1.03960195019
9.93926781954,13.0612169818,-3.97780036852,2.79878181652
11.3248787997,13.4787710584,-4.13340651323,2.10716558323
8.7404897798,3.70632513505,-5.86901265794,0.635549349929
6.37610075993,8.41387921168,-1.35461880265,5.38393311665
7.59171174007,7.55143328832,-2.08022494735,5.76231688335
4.6973227202,18.318987365,2.70416890794,9.54070065006
5.88293370033,16.5865414416,-1.76143723677,12.2290844168
8.63854468046,8.33409551822,-4.86704338148,4.68746818348
9.67415566059,17.5116495949,2.33735047381,3.8558519502
3.88976664072,11.7292036715,3.34174432911,-0.405764283096
2.10537762086,-0.593242251878,-5.0838618156,-6.55738051639
11.100988601,10.9543118248,-1.45946796031,4.53100325033
1.26659958112,13.0918659014,6.08492589498,1.94938701703
4.36221056125,2.86941997803,-3.01068024972,-2.69222921626
5.08782154138,7.77697405466,-0.636286394432,1.92615455045
2.85343252152,4.23452813129,-4.05189253914,-4.39546168284
3.28904350165,9.70208220793,-2.48749868385,-0.537077916131
2.30465448178,9.53963628456,2.16689517144,1.72130585058
2.83026546191,8.2071903612,4.47128902674,2.56968961729
3.14587644204,15.9547444378,6.08568288203,6.798073384
-0.558512577824,8.64229851447,2.31007673732,2.96645715071
0.437098402307,8.8098525911,-4.30552940739,0.194840917407
1.20270938244,-1.23259333227,-3.0211355521,1.02322468412
-1.39167963743,3.24496074437,-3.7967416968,-1.45839154917
-2.8760686573,16.582514821,1.67765215849,4.18999221754
1.27954232283,11.4800688976,2.02204601378,1.74837598425
1.40515330297,-5.58237702573,-4.35356013093,-0.443240249035
-3.7792357169,-0.344822949094,2.81083372437,-0.774856482327
-4.30362473677,3.83273112754,4.48522757966,-2.81647271562
-1.99801375664,19.6702852042,10.459621435,-0.0380889489097
-4.20240277651,-9.04216071919,-3.32598470976,-11.3497051822
-3.50679179638,-16.1546066426,-7.77159085447,-11.6013214155
-2.09118081624,1.00294743408,-2.24719699917,-1.00293764879
-2.66556983611,-3.61949848929,0.0171968561172,1.53544611792
0.53004114402,2.31805558735,5.98159071141,1.11382988463
1.94565212415,-4.14439033602,0.895984566703,-3.15778634865
2.87126310428,13.3631637406,7.130378422,0.190597418055
-0.613125915584,12.1507178172,3.94477227729,2.06898118477
-0.937514935452,-13.5617281061,-5.42083386742,-2.51263504852
3.84809604468,5.78582597052,2.56355998787,5.53574871819
4.14370702481,5.33338004715,1.44795384316,1.4841324849
3.47931800494,7.33093412379,4.24234769846,2.2425162516
-0.535071014925,-12.2615117996,-0.313258446253,0.140900018312
1.06053996521,-12.6239577229,1.86113540904,4.80928378502
-2.33384905466,-1.72640364631,3.13552926433,1.43766755173
-4.26823807453,4.21115043032,5.88992311962,1.87605131844
-4.4626270944,4.49870450696,1.91431697492,6.86443508515
-0.797016114266,6.36625858359,4.24871083021,9.69281885186
0.0585948658654,5.34381266023,3.1131046855,10.4612026186
-0.555794154003,-0.46863326314,-0.662501459208,4.32958638528
-1.40018317387,-4.91107918651,4.30189239608,-4.23202984802
0.255427806262,-2.74352510987,2.47628625138,0.816353918693
1.43103878639,-8.36597103324,7.08068010667,15.1447376854
-3.81335023348,-1.6284169566,9.34507396196,5.01312145212
-3.27773925334,-14.44086288,0.0494678172527,-5.95849478117
-3.07212827321,-11.1633088033,-2.69613832745,-2.92011101446
-0.226517293079,-6.7057547267,-0.951744472162,1.96827275224
-6.16090631295,-12.5882006501,1.33264938313,-4.89334348105
-7.58529533282,-8.09064657343,-1.81295676158,-7.66495971433
0.170315647316,-10.9530924968,-5.71856290629,-2.27657594762
-2.23407337255,-8.72553842016,-4.91416905099,-0.938192180918
-0.598462392421,-18.6579843435,2.5602248043,1.87019158579
-5.12285141229,-1.68043026689,5.08461865959,-1.2414246475
-5.60724043216,-13.9628761903,0.109012514882,-9.59304088079
-4.46162945202,-20.9453221136,-2.84659362983,-5.64465711408
-7.29601847189,-12.327768037,-2.55219977453,0.283726652633
-13.7504074918,-14.2602139604,3.53219408076,-8.59788958066
-18.0547965116,-32.2626598837,-6.36341206395,-12.489505814
2.26877180233,-12.5688953488,-4.54589026163,-14.7819513081
4.54116688221,-6.41539281381,-0.679201783105,-15.887089132
7.3535619621,-2.31189027879,-0.432513304575,-15.3522269559
6.23595704198,8.38161225623,4.32417517396,-2.3973647798
13.4583521219,7.56511479125,3.67086365249,2.01749739631
6.70074720175,-5.39138267373,1.81755213101,-4.89764042758
3.88314228163,-0.90788013871,1.23424060954,-2.76277825147
5.24553736152,1.49562239631,-0.339070911927,-2.42791607536
4.5079324414,11.8491249313,1.7376175666,2.92694610076
5.35032752129,3.52262746635,3.74430604513,4.73180827687
0.412722601173,16.9061300014,10.7609945237,2.21667045298
0.225117681058,-12.4603674636,-6.38231699781,-1.29846737091
7.37751276094,3.73313507142,-4.19562851928,-3.3636051948
7.10990784083,19.7466376064,-1.87894004075,9.66125698132
-2.72769707929,-16.4298598585,-1.27225156222,-9.08388084257
-5.0553019994,-1.79635732352,2.41443691631,-0.819018666458
-11.0229069195,4.0271452115,5.58112539484,3.37584350966
-5.73051183964,-1.48935225348,6.11781387337,-2.68929431423
-3.71811675975,-12.9158497185,0.924502351898,-6.27443213813
-4.61572167986,-10.4723471834,0.481190830429,-6.639569962
-1.11332659998,12.9211553516,1.07787930896,4.3952922141
-1.0909315201,13.9146578866,2.81456778749,4.72015439022
-3.48853644021,-5.16183957837,4.56125626602,1.44501656633
-6.99614136033,-14.2083370434,-1.25205525545,-6.74012125756
-9.30374628044,12.0651654917,7.95463322308,0.44474091856
-8.45135120056,-3.01133197331,-1.21867829839,-4.57039690533
-4.89895612067,-9.85782943829,-3.29198981987,-5.84553472922
-3.87656104079,-13.6743269033,-2.38530134134,3.05932744689
-6.2741659609,18.1191756318,0.521387137196,3.504189623
-7.28177088102,-4.10732183322,-4.40192438427,-4.09094820088
-6.06937580113,-14.5538192982,-5.00523590574,-6.30608602477
-5.40698072125,-9.54031676318,-3.08854742721,-1.93122384866
-1.51458564136,-1.79681422816,-2.57185894869,1.52363832746
-1.45219056148,-12.0233116931,-5.01517047015,-5.88149949643
-0.899795481596,-5.28980915812,0.931518008374,0.543362679688
-4.67740040171,23.2236933769,11.7482064869,6.63822485579
-4.41500532183,-16.3928040881,-4.10510503457,-13.7769129681
-1.04261024194,-7.55930155306,-2.85841655604,-7.52205079198
-0.0802151620574,0.944200981964,-1.18172807751,5.81281138413
0.232179917827,-7.33229648301,-6.81503959898,1.37767356025
0.834574997712,0.751206052006,-6.34835112045,-2.29746426364
-1.1830299224,-1.29529141297,-3.09166264192,5.18739791246
3.70936515748,-5.74178887795,-0.904974163388,5.98226008858
4.98176023737,3.10171365707,4.72171431514,17.1471222647
-1.99584468275,12.0552161921,5.54840279367,7.82198444081
4.08655039713,5.53871872711,0.475091272201,9.48684661692
6.13894547702,5.88222126213,3.91177975073,10.731708793
6.3813405569,-0.964276202846,-0.0415317707393,6.27657096914
3.47373563679,7.93922633217,4.28515670779,8.03143314526
1.90613071667,11.2127288672,12.1718451863,4.98629532137
0.918525796557,-15.8937685978,-4.34146633515,-4.51884250252
2.95092087644,-1.48026606276,-2.87477785662,3.3360196736
2.90331595633,12.8132364723,0.091910621908,8.85088184971
2.96571103621,6.67673900728,0.0485991004371,2.69574402582
3.7481061161,-3.9597584577,-0.224712421033,-1.37939379807
1.42050119598,3.83374407732,2.7919760575,0.915468378051
3.34289627587,-11.5827533877,-7.96133546397,5.42033055416
2.58529135575,-1.08925085264,1.20535301456,6.72519273027
0.817686435635,-4.91574831761,-2.28795850691,2.63005490638
1.12008151552,3.08775421741,-4.15127002839,5.72491708249
-2.1675234046,5.23125675243,-1.87458154986,4.46977925861
-2.05512832471,2.84475928745,0.342106928674,7.03464143472
2.07726675517,-6.91173817753,-0.131204592795,10.7295036108
-3.65033816494,13.4217643575,7.21548388573,4.64436578695
-4.51794308506,6.00526689251,0.422172364264,10.3592279631
-5.25554800517,-1.25123057247,0.348860842794,6.44409013917
-1.01315292529,3.68227196255,2.73554932132,4.81895231528
-1.8707578454,-9.13422550243,1.46223779985,-2.6261855086
-1.86836276552,1.2392770326,4.49892627838,4.35867666751
-3.90596768563,11.1327795676,3.02561475691,3.72353884362
-1.56357260575,-9.39371789736,-7.30769676456,-2.87159898027
-1.96117752587,11.1797846377,-0.041008286029,9.81326319585
-2.12878244598,-0.99671282732,-2.4143198075,7.83812537196
-1.3863873661,-7.8732102923,-4.04763132897,-2.27701245192
-1.01399228621,-4.34970775728,-7.23094285044,-1.90215027582
0.168402793674,-1.85620522226,-5.04425437191,-5.8672880997
0.990797873557,1.43729731276,-4.81756589338,0.987574076411
-5.24680704656,-0.609200152215,-0.60087741485,-2.86756374748
-2.13441196667,13.8243023828,2.77581106368,-2.04270157136
-0.482016886788,-9.70219508217,-3.97750045779,-5.11783939525
-1.8496218069,-16.4886925472,-10.6908119793,-5.75297721913
0.622773272981,5.13480998787,-6.55412350073,-7.07811504303
2.14516835287,6.95831252289,-4.2374350222,-10.0532528669
2.58756343275,14.2318150579,6.10925345633,-2.5783906908
3.89995851263,10.9753175929,0.255941934856,2.64647148531
-2.08764640748,-11.671179872,-6.76736958661,-12.0486663386
3.3647486724,11.132322663,-6.14068110808,-4.21380416246
3.96714375229,7.615825198,-3.51399262955,2.46105801365
7.35953883217,7.30932773302,2.25269584898,2.00592018977
4.85193391206,-7.80716973196,-6.73061567249,-1.23921763412
-0.225671008057,-1.83366719694,-3.02392719397,0.225644541984
-2.99327592817,5.66983533808,1.95276128456,3.2105067181
-3.31088084829,4.8233378731,5.56944976309,4.43536889421
-0.00848576840417,1.03684040812,0.426138241623,5.03023107033
-1.10609068852,-10.8396570569,-1.69717327985,-3.74490675356
5.08630439137,-14.1361545218,-2.52048480132,1.54995542255
2.55869947125,-14.1726519868,-2.93379632279,3.41481759866
-3.27890544886,9.42085054821,3.79289215574,1.48967977477
0.61348963102,22.1443530832,5.17958063427,8.14454195089
-1.3341152891,2.84785561825,1.9962691128,-2.840595873
-1.67172020921,0.311358153268,-6.18704240867,0.864266303113
-4.42932512933,-8.26513931171,-6.01035393014,3.08912847923
-3.17693004944,-7.56163677669,-2.72366545161,-5.65600934466
-3.42453496956,14.0818657583,-0.44697697308,0.188852831452
-3.54213988967,-1.43463170665,-2.30028849455,-1.31628499243
-1.74974480979,-3.22112917163,-0.92360001602,-3.85142281633
-3.9673497299,-6.4476266366,0.73308846251,-3.07656064021
-0.794954650019,-3.46412410158,-0.410223058961,-5.9216984641
5.14744042987,19.8393784334,3.51646541957,8.55316371201
3.82983550975,17.9528809685,6.5331538981,6.01802588813
3.82223058964,-11.1236164965,4.51984237663,-7.04711193576
2.61462566952,-15.0901139615,4.76653085516,-6.47224975964
-0.342979250596,-7.14661142648,5.83321933369,-0.887387583534
-1.88058417071,12.8268911085,1.15990781222,-6.44252540743
3.72181090917,15.4503936436,1.91659629075,3.63233676869
2.29420598906,-15.4461038214,0.613284769275,-2.2328010552
7.18660106894,8.6573987136,6.24997324781,4.69206112091
2.95899614883,6.25090124863,-2.14333827366,2.37692329703
-2.98860877129,-6.05559621635,1.95335020487,-4.55821452686
-3.7562136914,1.08790631867,3.35003868339,-6.31335235075
-7.08381861152,-6.16859114631,1.58672716192,-11.2584901746
-3.33142353163,-13.6850886113,2.72341564046,-13.5036279985
1.40097154825,-8.96158607627,0.890104118986,-8.90876582241
3.99336662813,-9.30808354125,0.146792597512,-5.7639036463
6.96576170802,13.0954189938,5.37348107604,6.54095852982
5.3481567879,2.31892152879,-1.32983044543,4.41582070593
-0.189448132212,-7.46757593618,0.626858033102,3.13068288205
-3.63705305233,-8.01407340116,-0.606453488368,-1.81445494185
15.4625545058,-4.03276162791,-10.8522274709,0.0560501453292
13.8224367675,17.2239440178,-5.908150808,5.04247061548
17.0823190293,10.8806496635,-3.67407414508,7.58889108563
13.252201291,-10.4226446908,-10.3899974821,1.35531155578
13.0920835527,-4.60593904505,-7.34592081922,-4.18826797407
12.2319658144,17.2307666007,6.19815584371,10.5181524961
4.38184807613,1.92747224638,-10.6377674934,-5.97542703376
6.01173033785,-14.9958221079,-6.01369083043,-9.96900656361
4.79161259957,-6.58911646219,-8.42961416751,-12.5725860935
0.431494861291,-9.91241081647,-4.35553750458,-17.8861656233
2.86137712301,0.214294829245,-5.03146084165,-0.359745153153
0.73125938473,12.581000475,-3.68738417872,4.506675317
-6.64885835355,15.5477061207,1.56669248421,2.92309578715
-5.58897609183,-12.2555882336,-3.71923085286,-4.1904837427
-1.34909383011,-27.6288825879,-10.1051541899,-11.4340632725
0.520788431607,-6.37217694218,-4.01107752701,-2.24764280239
-3.25932930667,-3.43547129647,-2.17700086408,-0.971222332242
-5.87944704495,-2.40876565075,2.71707579885,-1.45480186209
-1.88956478323,10.407939995,2.67115246178,9.49161860807
0.680317478485,-11.7853543593,-5.0647708753,-0.361960921786
-3.4198002598,-8.56864871361,-8.39069421237,-3.45554045163
-4.47991799808,1.06805693211,-4.23661754944,4.91088001852
-1.11003573636,13.1447625778,1.18745911349,10.6773004887
0.409846525363,-10.0985317765,-2.98846422358,1.73372095883
0.289728787082,-0.661826130745,3.13561243934,3.28014142898
1.3496110488,12.364879515,4.73968910227,5.69656189913
2.28949331052,4.66158516068,0.7137657652,4.73298236929
-4.67062442776,5.8182908064,2.47784242813,3.02940283943
-1.57074216604,-5.68500354789,-1.07808090894,1.19582330959
-3.08085990432,-10.2882979022,5.83599575398,6.52224377974
-4.5609776426,-10.8415922565,-4.73992758309,-1.52133575011
-6.22109538088,-0.98488661074,-3.28585092016,-7.80491527996
-5.75121311916,6.93181903498,2.47822574277,-1.63849480981
-9.54133085744,-3.53147531931,4.1523024057,-6.37207433966
-8.02144859572,6.95523032641,-1.79362093138,1.31434613049
-7.161566334,-13.7780640279,-1.14954426845,-10.5392333994
-5.58168407228,-2.80135838216,1.53453239448,-2.1328129292
-6.28180181056,9.40534726355,1.23860905741,0.573607540951
-5.17191954885,0.662052909266,1.86268572034,-9.95997198889
-4.64203728713,-24.521241445,-3.48323761673,-3.78355151874
-2.70215502541,-6.3945357993,-1.01916095381,-2.22713104859
-6.82227276369,-6.83783015359,3.93491570912,-7.45071057844
-8.77239050197,3.28887549213,11.898992372,0.505709891717
-7.61250824025,-5.64441886216,2.82306903498,-3.15786963813
-6.30262597853,-19.6577132164,1.31714569791,-6.87144916798
-5.23274371681,26.5889924293,6.88122236083,6.96497130217
-15.7028614551,3.36569807499,4.24529902376,-9.59860822767
-17.4529791934,-8.6075962793,1.91937568669,-14.0221877575
-11.3630969317,6.03910936642,8.40345234962,-2.75576728737
-6.20321466993,5.36581501213,8.86752901255,-0.989346817216
1.29666759179,8.54252065785,9.60160567547,3.32707365294
1.87654985351,9.01922630356,3.9056823384,3.32349412309
0.146432115226,8.52593194928,6.33975900133,0.729914593241
4.54631437695,20.442637595,9.15383566426,16.8663350634
4.00619663867,-5.71065675929,-2.04208767281,0.482755533543
5.22607890038,5.24604888642,2.27198899011,3.58917600369
6.7559611621,16.5627545321,0.476065653043,9.48559647385
-0.314156576177,-3.53053982215,2.13014231597,-2.177983056
-2.15427431446,10.0161658236,7.7842189789,3.60843741415
-1.64439205274,0.342871469281,1.58829564183,2.6248578843
-2.09450979102,-0.370422885003,1.99237230476,0.121278354454
-2.5246275293,-1.84371723929,1.63644896768,1.19769882461
3.41525473242,20.5129884064,15.0905256306,17.5341192948
3.38513699414,-9.13030594786,0.55460229354,-3.02946023508
3.08501925586,-3.51360030214,-3.55132104353,-0.863039764932
10.2549015176,1.56310534357,1.7827556194,10.6033807052
11.8147837793,12.2498109893,6.02683228232,14.5598011754
7.35466604102,1.816516635,6.25090894525,11.3462216455
8.98454830274,-5.60677771928,2.45498560818,9.98264211568
11.1644305645,9.05992792643,1.95906227111,12.4890625858
5.66431282618,12.0566335721,3.52313893404,13.955483056
6.7041950879,3.07333921786,5.19721559696,12.8419035261
15.1240773496,31.7800448636,6.78129225989,17.1383239963
10.9139596113,8.19675050929,8.90536892282,7.90474446644
6.12384187305,-14.346543845,0.609445585749,-0.418835063414
2.88372413477,-1.82983819928,4.14352224868,1.05758540674
2.13360639649,-2.94313255356,8.36759891161,2.40400587689
-0.0165113417879,-4.97642690785,5.03167557453,5.06042634704
-5.56662908007,-12.5497212621,-6.29424776254,-4.14315318281
-4.49674681835,-1.28301561642,0.15982890039,-6.06673271266
-2.22686455663,-1.9763099707,0.363905563318,-4.2603122425
-3.66698229491,-3.88960432499,0.917982226247,-4.32389177235
-3.69710003319,5.42710132073,3.73205888917,-4.52747130219
2.31278222853,16.5838069664,6.8861355521,8.94894916796
0.312664490248,6.91051261216,3.44021221503,1.46536963811
-0.357453248032,-15.3227817421,-3.13571112204,-10.6982098917
-1.39757098631,-18.4360760964,-3.74163445911,-10.6517894216
0.472311275406,5.1306295493,7.55244220381,2.94463104857
0.532193537127,2.31733519502,5.98651886674,1.71105151872
-2.90792420115,16.5540408407,8.08059552967,0.497471988871
-4.92804193944,-5.52925351355,-2.2453278074,-0.126107540978
-1.17815967772,-3.51254786784,-1.08125114447,5.19031292917
1.631722584,3.42415777788,3.81282551845,4.12673339933
4.50160484572,4.07086342359,4.92690218138,11.6731538695
8.07148710744,20.9475690693,10.7109788443,9.14957433963
-1.45863063084,-12.105725285,-7.25494449276,-10.3640051902
-5.12874836912,-11.1890196393,-6.32086782983,-7.18758472007
-6.2288661074,13.9576860065,3.89320883309,-0.84116424992
-16.0289838457,-2.75560834783,-3.08271450398,-10.4747437798
-17.019101584,-9.54890270212,-4.98863784105,-13.4183233096
-12.5292193222,-25.6821970564,-11.0245611781,-22.3019028395
-15.4393370605,-13.3454914107,-6.66048451519,-12.3754823693
-14.4194547988,10.171214235,-2.05640785226,-6.71906189915
-11.4795725371,-14.8320801193,-6.37233118934,-15.482641429
-7.23969027536,-14.2453744735,-9.99825452641,-9.57622095885
-6.56980801364,-12.9286688278,-1.92417786348,-15.6598004887
-5.70992575192,-7.72196318211,-1.86010120055,-4.44338001854
-4.1300434902,-27.5852575364,-9.48602453762,-14.0469595484
1.02983877151,-0.488551890681,-5.3719478747,-5.96053907824
0.999721033234,-12.311846245,-3.53787121177,-9.69411860809
2.53960329495,25.5748594007,5.39620545116,6.67230186207
1.56948555667,20.9015650465,2.44028211409,3.89872233222
-0.180632181608,-20.0217293078,-7.10564122298,-13.9148571976
4.14925008011,-11.5250236621,-3.46156456006,-4.07843672748
7.82913234183,-5.05831801639,-5.75748789713,-4.14201625733
12.9390146036,1.30838762932,-4.9134112342,-2.80559578717
10.3388968653,7.93509327504,1.88066542873,2.94082468298
6.51877912699,8.38179892075,0.404742091658,2.19724515313
7.15866138871,-3.80149543353,-2.28118124541,0.543665623278
-0.941456349572,-1.69478978782,6.32289541751,2.78008609343
-0.141574087852,4.8619158579,0.866972080441,5.95650656358
0.428308173868,8.94862150361,-4.42895125663,-0.287072966261
-1.25180956441,5.55532714933,-7.0048745937,2.52934750389
2.96807269731,-0.837967204955,-4.83079793077,11.115767974
3.40795495903,11.6887384408,-1.68672126785,8.34218844419
9.70783722074,0.665444086475,-10.6026446049,11.9886089143
14.6377194825,3.22214973219,-7.94856794199,9.3050293845
12.5076017442,2.10885537791,1.48550872094,12.1214498547
1.80187123001,22.8661211644,10.3606595856,15.3162667191
5.21859118718,25.8052211374,7.07853495161,10.0399984522
5.34531114436,16.0143211103,1.71641031759,6.86373018533
