1.25885174419,-0.589571220924,0.662067587204,-5.04055595931
2.87099704152,5.18078496956,1.80699811733,0.0825544199724
5.32314233886,5.97114116005,2.29192864745,0.355664799255
3.90528763619,5.75149735054,1.66685917757,2.47877517853
3.03743293353,5.71185354102,1.44178970769,-1.67811444218
6.06957823086,4.77220973151,0.876720237819,-2.85500406291
1.4417235282,2.812565922,-0.0583492320584,-2.40189368363
2.77386882554,1.38292211249,0.826581298064,-4.36878330435
0.206014122872,0.623278302972,0.781511828185,-5.01567292507
1.04815942021,6.24363449346,2.63644235831,-0.982562545785
8.26030471754,10.4939906839,6.05137288843,3.8005478335
3.12245001488,4.12434687443,0.706303418556,-0.936341787223
-9.17540468778,0.90470306492,-2.59876605132,-6.85323140794
-4.13325939045,-1.57494074459,-0.6638355212,-6.07012102866
-4.45111409311,-0.854584554105,-0.768904991077,-6.64701064938
-6.86896879578,1.20577163638,-2.04397446095,-6.2139002701
-0.0268234984433,5.88612782687,-1.55904393083,-3.46078989082
0.525321798892,8.92648401736,-0.134113400709,7.29232048846
-1.29253290377,6.84684020784,-0.849182870585,10.3754308677
2.72961239356,2.71719639833,-2.50425234046,4.07854124702
3.7817576909,-2.01244741118,-3.21932181034,-4.6783483737
5.80390298823,-1.3220912207,-1.88439128022,-5.76523799442
9.75604828557,-0.201735030209,-0.769460750094,-3.28212761514
6.10819358291,-0.731378839722,-0.854530219971,-3.83901723586
-1.17966111976,0.338977350764,-0.96959968985,-0.485906856578
0.812484177577,-0.530666458748,-1.57466915973,0.857203522704
1.34462947491,1.19968973174,-2.9397386296,3.64031390198
3.41677477225,0.290045922226,-1.64480809948,5.16342428127
2.71892006958,3.33040211271,0.0701224306413,8.31653466055
0.841065366922,0.3107583032,-0.204947039236,-0.220354960176
2.40321066426,-0.418885506313,-0.740016509113,-2.58724458089
-0.684644038407,-0.308529315827,0.15491402101,0.775865798387
0.067501258929,-5.10817312534,0.729844551133,-0.541023822338
-5.26035344374,-6.75781693485,-1.46522491874,-2.07791344306
-4.5882081464,-3.62746074436,-0.900294388621,2.48519693622
-3.81606284906,-2.12710455388,-2.6053638585,8.15830731551
-5.31391755173,-2.83674836339,-2.81043332838,4.92141769479
-6.92177225439,-9.5363921729,-2.29550279825,-3.65547192593
-9.38962695706,-11.0060359824,-5.43057226813,-6.80236154665
-10.7974816597,-12.5056797919,-4.66564173801,-8.53925116737
-11.2753363624,-10.2253236014,-1.25071120789,-8.64614078809
-9.93319106505,-7.80496741096,-1.67578067776,-7.59303040881
-6.65104576772,-6.61461122047,-3.54085014764,-0.929920029528
-5.93890047038,-9.83425502998,-2.68591961752,-1.30680965025
-2.70675517305,-8.4638988395,-1.35098908739,-3.09369927097
-1.90460987571,-6.56354264901,-1.66605855727,-3.11058889169
-0.272464578373,-9.06318645852,-3.16112802715,-3.68747851241
4.18968071896,-6.93283026804,-3.88619749703,0.605631866871
5.5318260163,-6.06247407755,-2.5412669669,2.88874224615
5.97397131363,-4.87211788706,-2.00633643678,4.77185262543
2.72611661097,-0.531761696573,0.608594093343,6.98496300471
1.4882619083,0.388594493914,0.643524623463,4.77807338399
4.98040720564,2.5989506844,1.80845515359,5.81118376328
2.42255250298,-0.860693125111,2.05338568371,3.96429414256
0.18469780031,3.41966306538,2.82831621383,9.01740452184
2.34684309765,4.65001925586,2.65324674396,10.2705149011
6.40898839498,2.62037544635,0.0781772740793,5.2636252804
3.21113369232,0.760731636838,0.1231078042,0.266735659679
-4.16672101035,-1.66891217268,1.72803833432,-1.27015396104
-4.34457571301,-3.91855598219,0.512968864447,-4.06704358176
-4.91243041568,-1.4381997917,1.94789939457,1.39606679752
-5.50028511834,-0.677843601215,1.87282992469,-0.730822823203
-8.808139821,-1.71748741073,2.00776045482,-0.947712443922
-5.30599452367,-5.58713122024,2.16269098494,-3.27460206464
-4.36384922633,-3.14677502976,2.22762151506,-1.86149168536
-2.741703929,-1.46641883927,1.64255204518,0.421618693919
4.59044136834,-1.84606264878,-0.192517424694,-0.615270926799
7.60258666567,-0.965706458293,-0.237586894571,2.42783945248
5.11473196301,-0.835350267807,0.477343635552,4.62094983176
-0.0231227396544,1.02500592268,1.79227416567,3.79406021104
-0.50097744232,3.19536211317,3.9772046958,5.87717059032
2.60116785502,4.76571830365,5.39213522592,2.2102809696
2.13331315235,5.23607449414,3.90706575604,5.32339134888
-0.264541550312,3.49643068463,3.77199628616,6.33650172816
-0.512396252976,4.70678687512,3.21692681629,7.51961210744
2.20974904436,6.2971430656,2.56185734641,7.95272248672
6.43189434169,4.64749925609,1.84678787653,6.305832866
0.72403963903,7.33785544658,3.23171840666,10.6389432453
-1.78381506363,6.48821163706,4.72664893678,11.3620536246
-0.131669766299,3.33856782755,2.8915794669,6.91516400385
-2.72952446896,4.50892401804,2.05650999702,6.60827438312
-3.62737917163,1.95928020852,1.94144052715,1.45138476241
-2.93523387429,2.04963639901,2.25637105727,1.42449514169
-6.07308857696,-3.1100074105,2.72130158739,-2.57239447903
-6.65094327962,-3.03965122002,0.666232117515,-5.80928409975
-1.44879798229,-1.95929502953,-0.428837352361,-3.63617372048
5.74334731505,-0.768938839041,0.596093177761,-3.52306334119
3.07549261239,-0.628582648553,1.10102370788,-3.84995296191
2.66763790972,1.49177354193,1.05595423801,-0.736842582632
-0.28021679294,2.34212973242,0.70088476813,2.65626779665
-4.32807149561,4.25248592291,1.14581529825,2.30937817593
-0.715926198271,3.51284211339,0.400745828376,-0.127511444789
5.20621909907,1.37319830388,1.9656763585,1.12559893449
5.6883643964,0.503554494369,3.06060688862,0.888709313771
4.37050969374,-1.16608931514,3.52553741874,-5.27818030695
1.64265499107,-3.53573312466,2.47046794887,-5.83506992767
0.434800288407,-3.06537693417,0.485398478988,-7.57195954839
-5.36305441426,-5.74502074368,-1.86967099089,-9.3588491691
-7.67090911692,-5.1846645532,-1.04474046077,-7.43573878983
-5.83876381959,-2.98430836271,-3.40980993064,-4.70262841055
-1.03661852225,0.436047827778,-3.34487940052,-0.0495180312682
-0.324473224915,1.35640401827,-1.8699488704,2.52359234801
-2.41232792758,3.95676020875,0.154981659725,5.83670272729
3.68981736976,2.27711639924,-0.0700878101507,2.59981310658
2.72196266709,1.63747258973,-1.56515728003,1.97292348586
0.0341079644277,1.59782878021,-1.1202267499,0.306033865138
0.526253261763,-0.0818150292998,-2.37529621978,-2.53085575558
-2.2516014409,-2.11145883881,-3.79036568966,-3.8677453763
3.45054385644,-0.231102648328,-1.66543515954,-2.45463499702
7.06268915377,0.469253542162,-0.260504629416,-1.20152461774
3.77483445111,3.30960973265,1.66442590071,2.78158576154
2.49697974844,4.98996592313,2.21935643083,6.47469614082
2.62912504578,4.88032211362,3.15428696095,5.2678065201
3.43127034311,-2.06932169589,-0.110782508924,-5.29908310062
-1.17658435955,-0.878965505404,-1.0258519788,-5.87597272134
1.60556093778,-2.07860931492,-1.99092144868,-6.32286234206
-0.0922937648811,-3.95825312443,-3.55599091856,-6.91975196278
-1.06014846754,-4.66789693394,-3.99106038843,-6.4266415835
0.37199682979,-1.75754074346,-3.40612985831,-4.78353120422
2.33414212713,-0.837184552969,-2.07119932819,-3.87042082494
0.366287424462,1.13317163752,-1.93626879806,-1.27731044566
2.4984327218,2.20352782801,-1.53133826794,0.765799933622
1.90057801913,2.67388401849,-0.416407737821,0.658910312904
-0.967276683532,2.03424020898,0.428522792303,1.98202069219
-5.0651313862,2.01459639947,1.00345332243,-1.72486892853
-4.21298608886,0.924952589954,-1.07161614745,-1.07175854926
1.29915920848,2.53530878044,-2.37668561733,0.941351830024
2.68130450581,2.58566497093,-1.5217550872,1.1644622093
6.31092296512,3.17061046512,2.76292151162,0.956239098836
4.77437791843,4.71146576291,2.1987330331,2.04161205594
3.72783287173,6.52232106071,2.87454455457,3.34698501305
3.53128782504,6.1231763585,3.40035607604,6.64235797015
4.16474277834,3.60403165629,2.88616759751,-1.89226907274
0.77819773165,2.82488695408,4.02197911898,-1.90689611564
-1.94834731504,2.60574225188,2.65779064045,-0.821523158535
1.14510763826,2.90659754967,1.86360216192,-2.84615020143
4.72856259156,2.00745284747,1.47941368339,-3.30077724433
0.132017544869,3.73830814526,1.52522520486,1.10459571278
-3.66452750183,0.119163443051,1.14103672633,-0.850031330116
-6.09107254852,-1.07998125916,1.3368482478,-7.14465837301
-2.50761759522,3.88087403864,0.24265976927,-1.7692854159
-1.67416264191,3.50172933643,-2.24152870926,1.6860875412
-0.840707688605,2.28258463423,-1.84571718779,-1.52853950169
2.1127472647,3.89343993202,0.160094333682,0.186833455409
4.55620221801,4.12429522981,1.14590585515,0.662206412511
1.45965717131,6.40515052761,3.84171737662,2.92757936962
1.37311212462,4.8260058254,2.31752889809,2.87295232672
-4.45343292208,5.09686112319,2.40334041956,3.45832528383
-8.08997796877,3.10771642099,2.62915194103,0.583698240935
-5.49652301547,-3.53142828122,0.964963462504,-4.32092880196
-3.29306806216,-5.76057298343,-2.15922501602,-3.66555584486
-5.00961310886,-4.89971768564,-3.80341349456,-4.84018288775
-4.57615815555,-7.44886238784,-2.88760197309,-7.68480993064
-4.86270320225,-6.95800709005,-2.78179045161,-6.96943697354
-6.52924824894,-3.57715179225,-2.20597893014,-4.76406401644
1.40420670436,-3.72629649446,-4.04016740867,-4.21869105933
6.06766165767,2.04455880333,-2.8343558872,1.13668189777
0.191116610971,1.55541410113,-0.268544365732,0.802054854877
1.51457156428,-1.61373060108,-1.81273284426,-1.80257218801
4.15802651758,-1.36287530329,-2.79692132279,0.262800769087
4.55148147089,0.537979994506,-2.65110980132,4.04817372619
3.59493642419,2.1988352923,-1.06529827985,5.0235466833
1.3883913775,3.80969059009,1.44051324162,7.2689196404
4.0918463308,0.370545887885,1.56632476309,6.65429259751
5.24530128411,-1.38859881432,0.532136284563,0.559665554614
6.49875623741,-2.32774351653,-0.472052193967,-0.974961488282
6.19221119072,-2.85688821873,-0.546240672496,-3.44958853118
3.15566614402,-5.20603292094,0.0795708489732,-5.89421557407
1.62912109733,-6.62517762315,0.495382370444,-5.79884261697
0.262576050633,-9.84432232535,-1.08880610809,-5.87346965986
2.37603100394,-8.03346702756,-2.28299458661,-5.01809670276
6.84948595724,-6.79261172977,-3.31718306514,-4.18272374565
7.06294091055,-6.43175643197,-2.76137154367,-4.70735078855
8.31639586385,-3.08090113418,-1.3955600222,-3.31197783144
8.38985081716,0.0999541636138,0.810251499268,0.723395125664
4.79330577046,1.73080946141,1.32606302074,1.80876808277
2.59676072377,2.8616647592,0.291874542208,1.23414103987
3.13021567707,0.422520056994,0.0676860636795,0.329513996981
1.24367063038,-2.29662464521,-1.57650241485,-0.765113045916
1.20712558368,0.834230652579,-1.55069089338,3.45025991119
2.64058053699,1.17508595037,-0.664879371911,4.60563286829
-0.795964509705,1.98594124817,-1.98906785044,5.5710058254
-1.3725095564,1.26679654596,-2.54325632897,2.7163787825
-0.139054603094,-2.61234815625,-3.0874448075,2.57175173961
1.07440035021,-0.261492858453,-2.75163328603,2.51712469671
0.767855303515,0.249362439341,-0.505821764558,3.06249765382
2.14131025682,-1.41978226287,0.319989756912,3.13787061092
0.604765210126,-0.658926965072,1.90580127838,1.53324356803
-5.82177983657,0.40192833272,3.11161279985,2.99861652513
-7.31832488326,-2.52721636949,2.07742432132,4.08398948224
-5.61486992996,-2.00636107169,2.27323584279,5.02936243934
-5.22141497665,1.1744942261,2.19904736426,5.62473539645
-3.53796002335,-0.484650476106,1.19485888574,4.33010835356
-1.74450507004,-0.923795178313,0.360670407206,5.41548131066
4.04894988326,-0.25293988052,1.22648192868,6.99085426776
-0.777595163434,1.49791541727,1.65229345015,7.96622722487
-2.86414021013,1.38877071507,0.938104971618,6.11160018197
-0.0206852568226,-0.62037398714,-0.256083506913,8.13697313908
-3.47723030352,-2.84951868935,-0.620271985443,5.69234609618
-6.40377535021,-2.01866339155,-1.37446046397,-0.522280946712
-3.45032039691,-0.297808093759,-3.5086489425,-3.03690798961
-4.0168654436,-0.806952795965,-3.78283742103,-4.2715350325
-6.1334104903,-2.78609749817,-2.86702589956,-7.9961620754
-5.88995553699,-6.22524220038,-2.71121437809,-9.35078911829
-8.47650058369,-7.49438690258,-3.69540285662,-9.09541616119
-11.8830456304,-7.33353160479,-1.03959133515,-10.2700432041
-12.2595906771,-5.632676307,-1.07377981368,-8.78467024698
-12.9261357238,-7.42182100921,-2.52796829221,-9.80929728987
-11.9126807705,-10.3909657114,-3.31215677074,-7.18392433277
-7.54922581716,-9.11011041362,-4.96634524927,-3.92855137566
-4.25577086386,-7.71925511583,-3.4505337278,-2.53317841856
0.627684089448,-3.84839981803,-2.00472220633,-0.357805461455
1.17113904275,2.57245547976,0.411089315146,4.74756749565
7.32459399606,1.21331077756,1.74690083662,5.74294045276
7.72804894936,1.90416607535,2.41271235809,5.20831340986
3.71150390267,2.37502137314,2.29852387956,7.86368636697
1.66495885598,5.89587667093,2.76433540103,9.29905932407
1.30841380928,4.91673196873,3.7401469225,7.09443228117
4.96186876259,6.45758726652,7.13595844397,9.69980523828
6.48532371589,6.61844256432,7.89176996544,11.3851781954
-3.9712213308,7.19929786211,3.21758148691,5.25055115249
-8.6277663775,10.6701531599,2.29339300838,4.4259241096
-8.84431142419,5.31100845769,1.37920452985,4.7712970667
-6.00085647089,-0.588136244511,-1.77498394868,-0.873329976195
-6.80740151758,-0.337280946716,-1.95917242721,-2.62795701909
-8.20394656428,0.343574351074,-1.69336090574,0.997415938018
-9.11049161097,-1.06557035113,-3.41754938427,-1.44721110488
-3.42703665767,-1.88471505334,-4.2117378628,-0.791838147776
-4.20358170436,-2.80385975554,-3.87592634133,0.0935348093335
-3.06012675106,-3.51300445775,-3.01011481986,-4.17109223357
-2.04667179775,1.49785084004,-1.53430329839,-0.0457192764588
-4.99321684445,1.69870613783,-1.08849177692,-0.480346319353
-1.53976189114,-0.17043856437,-0.652680255445,-2.55497336225
3.15369306216,-0.789583266576,-1.87686873397,-1.62960040514
3.31714801547,1.62127203122,-2.0410572125,-0.724227448038
8.22060296877,2.16212732901,-1.46524569103,1.86114550906
10.6840579221,6.4129826268,0.680565830437,3.60651846617
7.40751287538,4.7638379246,0.986377351906,1.49189142328
0.220967828687,0.83469322239,0.00218887337724,-3.97273561962
-3.75557721801,1.55554852018,0.328000394848,-4.15736266251
-5.9621222647,-0.0535961820242,-0.636188083681,-5.76198970541
-7.4586673114,1.53725911577,-0.390376562211,-7.83661674831
-2.70521235809,0.718114413563,0.675434959259,-8.2712437912
2.39824259521,1.76896971136,1.30124648073,-5.33587083409
1.53169754852,0.56982500915,-0.0929419977983,-3.42049787699
-3.31484749818,1.31068030694,1.25286952367,-1.64512491988
-2.28139254487,3.34153560474,2.18868104514,-0.119751962779
1.66206240844,2.27239090253,1.75449256661,-2.36437900568
0.83551736174,-1.09675379968,2.18030408808,-5.21900604857
2.56897231504,1.54410149812,3.46611560955,-1.70363309146
4.69242726835,3.07495679591,2.59192713102,-0.838260134362
8.88588222166,3.5858120937,0.977738652495,1.20711282274
13.669337175,1.1366673915,0.883550173965,3.33248577985
13.0327921283,0.28752268929,2.60936169543,3.65785873695
12.9662470816,-2.52162201292,1.68517321691,1.81323169406
12.9997020349,-2.86076671512,2.26098473838,2.01860465117
6.63756540698,-3.73599563953,-2.70305232558,0.223273982541
4.60786334348,-6.39341229285,-2.9093145429,-0.804886582144
-0.911838720011,-7.12082894616,-3.12557676021,-2.70304714683
-2.78154078351,-6.71824559948,-4.24183897752,-3.24120771152
-4.501242847,-7.83566225279,-4.82810119484,-3.9493682762
-1.1909449105,-6.41307890611,-2.16436341215,-6.22752884089
-3.37064697399,-8.32049555942,0.139374370536,-8.86568940557
-7.77034903749,-9.77791221273,-0.436887846778,-8.91384997026
-9.60005110098,-9.28532886605,-0.653150064092,-8.86201053494
-10.3297531645,-10.2027455194,-0.519412281405,-9.87017109963
-10.079455228,-9.92016217268,-1.21567449872,-10.5183316643
-11.8391572915,-9.56757882599,-0.811936716033,-8.81649222901
-10.628859355,-8.78499547931,-0.158198933346,-7.67465279369
-8.45856141846,-8.34241213262,-0.644461150659,-6.80281335838
-12.158263482,-5.83982878593,-0.530723367974,-3.52097392306
-10.5679655455,-4.23724543925,1.88301441471,-8.87913448775
-11.657667609,-3.93466209257,2.8867521974,-10.8172950524
-12.3073696724,-5.72207874588,2.06048998009,-9.16545561712
-7.35707173594,-3.88949539919,1.33422776277,-6.0636161818
-6.61677379944,-1.92691205251,0.947965545458,-3.24177674649
-3.39647586293,0.095671294177,0.841703328146,0.420062688823
-4.77617792643,-2.27174535914,1.33544111083,-0.50809787586
-2.33587998993,-3.18916201245,1.04917889352,-4.77625844055
2.07441794658,-3.19657866577,-0.0470833237941,-6.29441900523
-1.00528411692,-3.42399531908,-0.0633455411098,-7.05257956992
-4.64498618041,-3.00141197239,0.270392241577,-7.26074013461
-4.32468824391,-3.40882862571,1.34413002426,-5.73890069929
-2.9143903074,-3.45624527902,0.60786780695,-2.93706126398
-5.2340923709,-4.00366193234,-0.528394410365,-4.45522182866
-5.9437944344,-1.63107858565,-0.704656627677,-8.37338239335
-4.12349649789,-0.608495238968,-0.610918844992,-7.41154295803
-4.54319856139,-1.64591189228,0.0128189376956,-6.39970352272
-6.24290062488,-3.1233285456,-0.363443279617,-6.08786408741
-7.53260268838,0.13925480109,0.530294503067,-2.61602465209
-1.78230475187,2.14183814777,0.954032285756,-2.23418521678
-2.91200681537,3.30442149446,1.06777006844,0.537654218537
-1.84170887887,6.36700484115,2.75150785113,3.66949365385
-0.361410942362,2.71958818783,2.48524563381,1.18133308917
0.178886994141,3.65217153452,1.7489834165,2.55317252448
-2.47081506935,8.2347548812,4.23272119919,5.7950119598
-3.07051713285,8.31733822789,4.00645898187,5.81685139511
0.0897808036534,7.43992157457,3.10019676456,4.35869083042
-0.379921259841,7.86250492126,3.76393454725,4.41053026574
-1.86962332334,9.68508826794,3.87767232993,8.74236970105
4.06067461317,10.4476716146,2.79141011262,10.8242091364
3.59097254967,9.75025496131,1.4751478953,8.88604857168
4.80127048618,9.812838308,2.45888567799,6.60788800699
3.69156842268,8.80542165469,3.80262346068,7.29972744231
1.95186635918,8.50800500137,4.29636124337,5.06156687762
1.98216429569,9.17058834806,3.45009902605,5.46340631294
3.55246223219,10.0631716947,1.84383680874,10.7052457482
4.0927601687,9.05575504143,1.39757459142,10.5870851836
5.8630581052,11.2383383881,0.41131237411,13.8489246189
9.4933560417,8.6409217348,-1.10494984321,12.8007640542
10.3936539782,10.8135050815,-0.791212060518,11.5526034895
9.14395191471,11.8960884282,-0.567474277832,10.6144429248
10.4842498512,9.27867177486,-1.27373649515,11.1362823601
12.9245477877,9.75125512154,-0.559998712459,15.3081217954
14.4048457242,12.9838384682,1.09373907023,18.3799612308
16.0451436607,14.3464218149,2.36747685291,21.0118006661
17.2154415972,13.4690051616,0.00121463559844,16.9736401014
15.6357395337,13.6015885083,0.454952418286,13.9354795367
17.2060374702,9.75417185497,-0.391309799026,12.387318972
14.2763354067,5.20675520165,-2.08757201634,7.33915840733
13.5866333433,3.79933854834,-2.73383423365,5.60099784265
15.4269312798,1.35192189503,-3.27009645097,3.03283727796
13.2372292163,0.954505241711,-1.90635866828,1.97467671327
10.3875271528,1.9270885884,-2.7326208856,4.25651614859
9.73782508927,2.12967193508,-3.93888310291,3.3483555839
7.93812302577,4.13225528177,-1.67514532022,5.09019501922
8.13842096228,4.26483862845,-1.58140753754,7.44203445453
9.64871889878,-1.64257802486,-2.09766975485,1.94387388985
7.97901683528,-2.91999467818,-3.01393197216,0.155713325163
10.5693147718,1.97258866851,-1.74019418948,5.29755276048
10.6896127083,3.1351720152,-0.196456406791,3.59939219579
7.8299106448,2.63775536188,-0.502718624104,1.4112316311
5.7402085813,3.17033870857,0.711019158582,1.54307106642
-0.829493482193,-1.63707794475,0.884756941268,-1.80508949827
-0.979195545688,-4.52449459806,-1.41150527604,-4.33325006295
-0.618897609185,-5.11191125138,0.26223250664,-4.62141062764
3.65140032732,-3.43932790469,1.40597028933,-2.96957119233
6.54169826382,-1.72674455801,1.33970807201,0.83226824299
8.04199620033,0.73583878868,0.9434458547,2.3141076783
6.91229413683,0.908422135366,0.717183637385,6.98594711362
9.55259207334,-0.0589945179509,0.680921420073,9.01778654893
13.0228900098,-0.736411171265,-1.55534079724,8.21962598425
5.34318794634,-0.963827824578,-1.46160301456,4.64146541956
3.31348588285,-4.20124447789,-0.817865231867,-2.30669514513
4.97378381935,-3.82866113121,-1.26412744918,-0.784855709811
7.23408175586,0.0539222154785,0.169610333505,2.6369837255
2.47437969236,4.11650556216,0.49334811619,3.88882316082
2.36467762887,1.16908890885,-0.982914101121,2.52066259613
-2.36502443463,-0.428327744467,-0.809176318437,-0.337497968554
-4.08472649813,-2.39574439778,-2.23543853575,-2.99565853324
-2.26442856162,-0.993161051094,-4.33170075306,-4.75381909792
-0.334130625117,-1.35057770441,-5.13796297038,-5.16197966261
-1.69383268861,-0.927994357722,-3.59422518769,-4.8701402273
-5.91353475211,-2.70541101104,-2.630487405,-4.28830079198
-2.6932368156,-4.49282766435,-2.98674962232,-5.06646135667
-2.0629388791,-0.500244317667,-0.473011839633,0.835378078646
-0.892640942595,3.14233902902,1.16072594305,4.72721751396
1.00765699391,2.7149223757,1.67446372574,2.08905694927
2.91795493041,0.69750572239,1.22820150843,4.03089638459
1.28825286692,-2.27991093092,-0.108060708886,1.8927358199
4.15855080342,-1.54732758424,-0.7843229262,1.64457525521
4.89884873993,1.11525576245,-1.09058514351,1.04641469053
-0.57085332357,0.457839109131,-1.24684736083,1.60825412584
-3.43055538707,-1.59957754418,-3.21310957814,-1.05990643884
-2.75025745056,-3.5269941975,-3.18937179545,-3.70806700353
-4.26995951406,-3.55441085081,-1.77563401277,-1.56622756822
-0.0796615775525,-3.78182750412,-2.42189623008,2.3656118671
-1.57936364105,-5.38924415744,-2.1081584474,-1.27254869759
-5.56906570455,-4.03666081076,-0.044420664708,-3.13070926227
-3.90876776804,-3.14407746407,0.0693171179773,-3.43886982696
-3.03846983154,-4.24149411738,-0.376945099335,-4.64703039164
-9.66817189503,-3.2889107707,-0.673207316649,-4.46519095633
-8.27787395853,-5.21632742401,-0.289469533964,-4.33335152101
-3.28757602202,-7.67374407733,-1.55573175128,-5.6915120857
-8.42727808552,-5.35116073064,-0.86199396859,-8.45967265039
-17.296980149,-5.13857738396,-0.548256185903,-12.8178332151
-13.0866822125,-8.44599403727,-1.26451840322,-13.4259937798
-13.396384276,-9.27341069058,1.12921937947,-12.6841543444
-18.1060863395,-10.0808273439,2.85295716215,-12.3423149091
-16.295788403,-8.76824399721,2.89669494484,-12.4304754738
-12.5754904665,-4.54566065053,4.22043272753,-8.4786360385
-11.36519253,1.21692269616,5.36417051021,-3.91679660319
-9.05489459348,3.01950604284,6.7279082929,-4.60495716787
-8.40459665698,1.02208938953,6.66164607559,-6.57311773256
-7.16221293604,-3.92318313953,-3.40597020349,-6.69035247093
-7.32057129532,-1.34323143655,-1.68035699163,-3.30232649698
-6.32892965459,-0.29327973356,-2.52474377976,-3.30430052303
-5.61728801387,-2.83332803057,-4.3491305679,0.13372545092
-4.75564637314,-3.88337632759,-4.74351735603,1.40175142487
0.265995267582,-1.53342462461,-2.74790414416,2.30977739882
-0.652363091693,0.94652707838,-0.572290932299,1.54780337277
-3.50072145097,1.15647878136,-0.0566777204331,-0.474170653273
-4.59907981024,-1.97356951565,-0.971064508567,-5.97614467932
-5.56743816952,-1.23361781267,0.3845487033,-4.23811870537
-6.49579652879,-0.113666109683,1.50016191517,-2.34009273141
-6.61415488807,-0.493714406697,-0.574224872968,-4.20206675747
-2.59251324734,1.03623729629,-1.3686116611,-0.564040783513
-3.34087160662,-1.08381100073,-0.712998449237,-1.33601480956
-2.66922996589,-1.33385929774,-0.43738523737,1.48201116439
-0.107588325167,0.726092405243,-0.791772025505,3.42003713834
-0.625946684442,2.65604410823,-1.45615881364,2.2280631123
-0.434305043716,2.69599581121,-1.07054560177,5.55608908625
2.46733659701,1.89594751419,-1.33493238991,5.2341150602
2.58897823773,-0.154100782818,-1.83931917804,0.182141034147
-3.71938012154,0.745850920166,-1.81370596617,-2.4198329919
-1.17773848082,0.345802623151,-2.72809275431,-2.69180701795
-1.02609684009,1.15575432614,-1.60247954244,-0.533781043996
-1.59445519937,1.53570602912,-0.456866330576,1.80424492996
-3.09281355864,-2.0843422679,-1.19125311871,-3.15772909609
-4.26117191792,-1.85439056491,-1.65563990684,-2.62970312214
-5.94953027719,-2.86443886193,-3.03002669498,-0.95167714819
-2.93788863647,-3.32448715894,-4.79441348311,0.626348825765
-7.03624699574,-5.47453545596,-4.58880027125,-4.87562520029
-6.39460535502,-4.72458375297,-4.06318705938,-6.71759922633
1.93703628571,-3.49463204999,-2.51757384752,-2.47957325238
-2.43132207357,-1.554680347,-1.10196063565,-0.511547278427
-3.34968043284,2.45527135598,0.353652576217,-0.453521304476
-3.73803879211,0.845223058968,2.07926578808,-2.26549533053
-9.21639715139,-0.374825238048,2.93487899995,-1.42746935657
-12.4647555107,-0.664873535065,2.16049221181,-1.80944338262
-8.18311386994,1.77507816792,0.666105423681,2.35858259133
-3.07147222921,2.78502987091,-0.0682813644526,0.506608565283
-3.00983058849,0.664981573891,-0.862668152586,-0.555365460765
-2.16818894777,-2.28506672313,-1.17705494072,-1.76733948681
1.13345269296,-1.61511502014,-1.05144172885,3.41068648714
-4.05490566631,1.33483668284,1.81417148301,5.70871246109
-0.533264025591,-0.0852116141705,1.14978469488,-0.953261564959
-1.77162238487,-1.58525991119,1.64539790674,-4.82523559101
-2.75998074414,0.884691791798,2.65101111861,-1.81720961706
2.24166089659,2.17464349478,3.37662433047,-2.4291836431
7.93330253731,1.55459519777,3.25223754234,-1.87115766915
8.30494417804,4.08454690075,2.69785075421,1.3168683048
8.29658581876,6.12449860374,2.67346396607,3.79489427875
11.5982274595,2.79445030672,2.74907717794,2.2929202527
11.7098691002,5.21440200971,3.20469038981,4.56094622665
10.2515107409,3.02435371269,1.91030360167,1.56897220061
9.32315238166,-1.04569458432,1.31591681354,-6.04300182544
11.3047940224,-0.945742881338,2.0615300254,-3.72497585149
10.2264356631,-1.66579117835,2.21714323727,-1.69694987754
12.1680773038,-1.03583947537,4.10275644913,-2.49892390359
6.87971894456,2.54411222762,5.628369661,-1.48089792964
5.67136058529,3.5140639306,4.58398287287,2.24712804432
4.79300222601,0.804015633585,5.36959608473,-0.0148459817283
2.99464386674,0.18396733657,3.4052092966,1.14317999222
2.31628550746,1.66391903956,1.36082250847,4.26120596617
3.36792714819,-1.57612925746,1.27643572033,-1.31076805987
1.63956878891,-3.71617755448,0.922048932198,-4.39274208593
-1.29878957036,-2.77622585149,2.15766214406,-4.49471611197
3.41285207036,-0.0262741485058,1.24327535593,-1.20669013802
4.50449371109,2.23367755448,4.6688885678,2.36133583593
15.2661353518,6.04362925746,6.13450177966,6.61936180988
21.6977769925,7.36358096045,6.70011499153,10.2573877838
9.46941863326,6.80353266343,5.20572820339,10.1654137578
-2.58893972601,8.64348436642,2.73134141526,10.3134397317
-0.497298085287,5.7634360694,2.97695462713,6.89146570569
-0.0756564445619,3.95338777239,3.41256783899,5.85949167964
5.88598519616,-1.60666052463,1.51818105086,2.09751765359
7.48762683689,-8.51670882164,-2.32620573728,-5.12445637245
3.76926847761,-6.92675711866,-1.42059252541,-0.9064303985
9.22091011834,-7.00680541567,-1.52497931354,1.63159557545
7.73255175906,-7.34685371269,-1.31936610168,0.239621549405
7.81419339979,-1.7769020097,-0.0837528898119,0.0776475233542
5.88583504051,-1.36695030672,1.68186032205,0.615673497305
4.38747668124,-0.766998603734,2.51747353392,0.583699471259
6.58911832196,2.28295309925,3.75308674578,4.15172544521
1.38075996269,2.73290480223,4.04869995765,6.22975141916
0.412401603415,0.292856505219,2.04431316952,4.36777739312
-0.805956755859,0.272808208205,2.98992638138,1.60580336707
-2.68431511514,4.95275991119,3.43553959325,9.38382934102
2.01732652559,4.41271161417,1.52115280511,9.22185531497
0.318968166313,2.94266331716,0.146766016982,4.60988128892
1.31060980704,3.66261502014,-0.837620771152,1.16790726287
1.04225144776,3.46256672313,-0.602007559286,3.50593323683
-0.176106911511,0.672518426112,-0.736394347419,2.91395921078
2.88553472921,-0.0775298709013,-1.06078113555,1.66198518473
4.03717636994,0.812421832083,-1.66516792369,2.42001115868
4.27881801067,0.212373535067,-1.69955471182,2.92803713263
6.68045965139,-1.79767476195,-1.02394149996,1.17606310658
3.41210129212,-4.62772305896,-1.82832828809,-3.76591091946
-1.01625706716,-7.35777135598,-1.68271507622,-5.58788494551
0.605384573566,-10.127819653,-4.71710186436,-8.13985897156
-1.36297378571,-8.73786795001,-6.14148865249,-6.04183299761
2.10866785502,-7.32791624703,-4.30587544063,-5.82380702365
1.66030949574,-3.22796454404,-3.12026222876,-4.1757810497
-2.21804886353,-0.168012841055,-2.68464901689,-1.25775507575
1.78359277719,3.64193886193,-0.559035805029,-0.3197291018
1.23523441791,5.85189056491,0.766577406837,0.498296872149
-4.29312394136,2.8818422679,0.352190618703,-0.643677153897
-4.99148230063,4.00179397088,-0.602196169431,2.29434882005
-0.949840659909,8.05174567387,-0.976582957564,9.51237479401
5.75180098082,8.55169737685,-0.0109697456992,10.130400768
6.45344262154,11.7716490798,1.17464346617,11.9384267419
1.64508426227,11.1016007828,0.620256678034,11.3964527159
3.22672590299,7.53155248581,-0.4441301101,10.0044786898
6.52836754372,3.53150418879,-0.368516898234,2.24250466377
5.13000918444,3.04145589178,-2.40290368637,1.14053063772
0.211650825167,0.361407594763,-4.6472904745,-1.54144338833
-3.41670753411,-2.91864070225,-4.82167726264,-6.73341741438
-5.21506589338,-6.55868899927,-4.16606405077,-10.4053914404
-7.34342425266,-7.94873729628,-2.98045083891,-11.4673654665
-10.1617826119,-8.9687855933,-1.20483762704,-11.4493394925
-8.36014097121,-8.49883389031,-0.469224415174,-7.49131351857
-8.34849933048,-6.52888218733,-1.06361120331,-5.35328754462
-7.18685768976,-6.52893048435,-1.79799799144,-2.72526157067
-5.25521604903,-3.54897878136,-2.46238477957,-1.07723559672
-4.27357440831,-2.40902707837,-2.94677156771,-1.16920962276
-6.81193276758,-0.209075375391,-1.33115835584,-1.44118364881
-10.6602911269,2.34087632759,0.974454856025,1.27684232514
-8.47864948613,-2.97917196942,1.03006806789,-2.37513170091
-11.2970078454,-1.83922026644,0.985681279757,-8.45710572696
-16.6953662047,1.56073143655,0.61129449162,-7.00907975301
-17.863724564,1.61068313953,0.526907703486,-5.67105377905
2.64089026164,8.34357194768,1.7352616279,4.48168241278
0.707955474052,8.63966481071,2.11329269478,6.14898490431
-1.55497931353,9.11575767374,4.29132376167,5.48628739584
1.56208589888,8.78185053676,2.09935482855,1.52358988737
-1.3308488887,7.00794339979,-0.242614104565,-0.499107621101
-3.37378367629,3.57403626282,-0.324583037682,0.558194870431
4.01328153613,4.02012912585,-0.1465519708,3.70549736196
6.90034674854,4.22622198888,-1.54852090391,3.5327998535
2.62741196096,3.05231485191,-3.96048983703,1.96010234503
0.024477173376,4.48840771494,-4.15245877015,3.37740483656
1.06154238579,4.22450057797,-2.31442770326,5.33470732809
-0.401392401795,-1.28940655901,-3.65639663638,0.112009819619
0.185672810621,-1.66331369598,-4.1883655695,-5.46068768885
0.492738023035,0.602779167049,-2.69033450261,-2.32338519732
-0.68019676455,1.88887203008,-1.61230343573,-1.16608270579
-2.54313155213,-3.02503510689,-1.13427236885,-2.34878021426
-6.15606633972,-5.47894224386,-1.31624130197,-5.97147772273
-5.7890011273,-1.78284938083,-0.278210235081,-8.1741752312
-5.24193591489,-2.68675651781,-0.0101791681973,-11.2968727397
-7.79487070247,-0.650663654777,2.72785189869,-6.27957024813
-5.27780549006,-0.0645707917465,3.77588296557,-2.1322677566
-6.70074027764,-1.08847792872,3.62391403245,-2.07496526507
-4.27367506523,2.18761493431,2.17194509934,-2.10766277354
-0.0566098528125,-0.226292202662,-1.06002383378,-3.50036028201
0.0904553596047,2.30980066037,-0.0519927668975,-1.88305779048
-0.412479427981,1.3358935234,-0.0239617000152,-4.64575529895
-0.275414215566,-0.0880136135747,0.53406936687,-6.50845280742
1.57165099685,1.70807924945,1.30210043375,-5.45115031589
0.0187162092643,0.724172112481,1.33013150064,-5.05384782435
0.92578142168,1.83026497551,0.568162567521,-5.55654533282
0.132846634095,-1.38364216146,-0.783806365596,-4.02924284129
-1.98008815349,-5.86754929843,-2.88577529871,-7.88194034976
0.986977058925,-8.5014564354,-4.86774423183,-7.96463785823
-2.78595772866,-7.01536357237,-3.94971316495,-7.6573353667
0.161107483755,-6.29927070935,-4.15168209806,-5.50003287517
-0.86182730383,-8.27317784632,-2.42365103118,-3.23273038364
-3.28476209141,-7.82708498329,-1.0056199643,0.604572107895
-1.797696879,-7.68099212026,-2.47758889741,-2.15812540058
-0.490631666584,-7.31489925723,-4.79955783053,-5.95082290905
2.18643354583,-7.3088063942,-4.84152676365,-6.52352041752
0.0934987582459,-8.17271353117,-3.72349569676,-4.24621792598
1.31056397066,-9.93662066815,-1.16546462988,-3.63891543445
3.55762918308,-5.37052780511,1.002566437,1.46838705708
5.13469439549,-2.79443494209,-0.199402496113,1.61568954861
0.541759607908,-0.658342079059,0.408628570771,3.42299204014
-1.83117517968,-4.81224921603,2.17665963765,1.22029453167
-3.70410996726,-5.926156353,0.484690704538,-2.7324029768
-3.41704475485,-3.15006348997,0.592721771422,0.474899514735
0.610020457569,0.686029373057,1.36075283831,2.52220200626
4.78708566998,3.91212223608,2.77878390519,6.8095044978
8.5741508824,4.82821509911,3.22681497207,12.1868069893
6.46121609481,5.77430796214,3.85484603896,11.0741094809
3.31828130723,5.43040082517,5.08287710584,9.16141197239
3.82534651964,6.4864936882,5.52090817272,9.21871446392
0.30241173206,7.14258655123,4.19893923961,6.81601695545
-2.99052305553,7.25867941426,5.72697030649,10.043319447
0.79654215689,3.12477227729,5.10500137337,9.39062193851
0.763607369307,3.16086514031,5.01303244026,5.86792443004
3.77067258172,4.14695800334,5.02106350714,6.72522692158
3.13773779414,3.23305086637,3.92909457402,6.09252941311
0.754803006552,2.0791437294,2.63712564091,6.32983190464
-0.0581317810338,-2.47476340757,1.88515670779,4.21713439617
-1.79106656862,-1.38867054454,3.69318777467,2.8444368877
-3.3940013562,-1.14257768151,4.39121884156,3.68173937923
-6.79693614379,-1.08648481848,3.61924990844,3.57904187076
-4.72987093137,-3.16039195545,3.07728097532,1.68634436229
-7.24280571896,-6.30429909243,1.61531204221,-2.61635314618
-5.19574050654,-5.7582062294,1.70334310909,-2.03905065465
-3.73867529413,-4.10211336637,2.87137417597,-0.781748163117
-5.06161008171,-1.83602050334,2.17940524286,0.375554328413
-8.1345448693,-0.849927640311,1.26743630974,3.11285681995
-9.41747965688,-7.88383477728,-0.604532623376,-0.319840688524
-6.55041444447,-4.40774191425,-1.00650155649,0.787461803011
-0.633349232052,-4.45164905123,-2.40847048961,1.71476429454
5.25371598037,-4.2355561882,-2.83043942273,2.35206678607
7.21078119278,-2.84946332517,-1.03240835584,0.169369277603
4.53784640519,1.98662953786,-0.924377288959,4.49667176913
-0.995088382389,0.182722400888,-1.67634622208,2.79397426066
5.05197683003,-3.47118473608,-3.99831515519,-1.26872324781
2.73904204244,-1.36509187305,-2.88028408831,-0.671420756273
-0.663892745144,-1.75899901003,-2.00225302143,-0.914118264744
0.573172467271,-5.492906147,-3.62422195454,-2.03681577321
1.19023767969,-6.39681328397,-4.11619088766,-2.80951328168
-0.142697107898,-7.73072042094,-3.39815982078,-5.55221079015
2.26436810452,-2.74462755791,-1.36012875389,-2.42490829862
2.86143331693,-2.57853469488,-2.67209768701,-0.0276058070849
5.12849852935,-3.82244183185,-2.84406662013,-2.03030331555
5.98556374176,-0.216348968823,-0.586035553242,-0.493000824026
5.42262895418,2.01974389421,-0.828004486359,3.9843016675
3.59969416659,0.355836757233,-2.22997341947,-1.05839584096
7.13675937901,2.04192962026,-1.89194235259,0.168906650568
8.27382459142,1.83802248329,-2.40391128571,1.9862091421
10.6108898038,0.15411534632,-3.02588021883,3.65351163363
7.37795501625,1.32020820935,-1.74784915194,0.400814125158
6.85502022867,2.82630107238,-0.689818085057,-1.69188338331
9.57208544108,5.42239393541,1.20821298183,2.97541910822
6.0291506535,7.25848679843,1.88624404871,6.60272159975
6.50621586591,10.0145796615,1.80427511559,6.32002409128
8.86328107833,10.0906725245,1.38230618248,8.12732658282
8.05034629075,11.0167653875,2.08033724936,8.82462907435
6.09741150316,6.33285825055,1.22836831624,4.64193156588
5.10447671558,5.28895111358,0.296399383127,2.70923405741
3.26154192799,6.05504397661,1.14443045001,-2.60346345106
6.59860714041,7.82113683964,1.40246151689,0.00383904046976
6.18567235282,8.45722970266,1.56049258378,3.881141532
2.82273756524,6.31332256569,0.358523650659,3.30844402353
-2.06019722235,2.02941542872,-2.12344528246,0.635746515061
-4.05313200993,2.52550829175,-1.53541421557,0.513049006593
-5.07606679752,-1.32839884522,-3.16738314869,-2.70964850188
-5.2890015851,-1.95230598219,-2.48935208181,-3.84234601034
-6.30193637269,-0.736213119164,-0.051321014922,-0.0350435188157
-4.21487116027,-1.53012025613,-0.18328994804,-2.25774102728
0.312194052143,-0.584027393106,-0.485258881157,-2.65043853575
2.42925926456,0.562065469921,-2.40722781427,-2.25313604422
-0.663675523025,0.0281583329506,-2.19919674739,-3.09583355269
-5.19661031061,-4.50574880402,-3.09116568051,-5.00853106116
-8.5595450982,-4.02965594099,-2.39313461362,-3.20122856963
-6.80247988578,-0.713563077963,-1.18510354674,-1.9439260781
-5.96541467337,3.81252978507,0.0229275201436,-3.71662358657
-3.37834946095,4.19862264809,0.970958587028,-1.57932109504
-0.641284248533,0.964715511123,0.548989653911,-3.3120186035
-2.62421903612,0.880808374153,2.02702072079,-1.62471611197
-6.3171538237,-2.04309876282,2.90505178768,-0.367413620443
-7.42008861129,-0.66700589979,2.79308285456,-4.33011112891
-4.15302339887,-0.800913036763,1.19111392144,-5.77280863738
-5.99595818646,-6.96482017373,0.0991449883295,-7.12550614585
-8.59889297404,-7.5387273107,1.08717605521,-6.59820365432
-5.07182776163,0.117365552325,1.3852071221,-3.10090116279
-5.88661700581,-9.98631540697,-6.66400799419,-6.13275799419
-5.71244661005,-10.4255552726,-7.07019241554,-5.23472858681
-3.65827621429,-11.0147951382,-6.27637683689,-4.65669917942
3.38589418147,-10.8240350039,-6.16256125825,-5.00866977203
3.45006457723,-9.98327486953,-5.9087456796,-1.96064036464
-0.685765027005,-7.55251473517,-5.86493010095,-3.24261095725
0.348405368755,-6.9017546008,-5.3011145223,-6.85458154986
-1.82742423548,-7.73099446644,-5.80729894365,-5.78655214247
-2.83325383972,-13.1702343321,-5.313483365,-8.25852273508
-3.13908344396,-11.4594741977,-3.33966778635,-6.4704933277
-5.3549130482,-5.61871406336,-2.63585220771,-4.88246392031
-5.33074265244,-12.827953929,-4.31203662906,-7.92443451292
-3.65657225668,-12.4771937946,-3.83822105041,-9.23640510553
-4.75240186092,-9.40643366027,-4.01440547176,-7.53837569814
-6.56823146516,-10.7556735259,-5.28058989311,-9.59034629075
-6.6340610694,-7.05491339155,-2.50677431446,-7.11231688336
-6.31989067364,-6.21415325718,-2.81295873581,-5.43428747597
-7.19572027788,-3.22339312282,-2.82914315716,-4.44625806858
-7.86154988212,-2.65263298846,-3.94532757852,0.361771338805
-5.96737948636,1.5181271459,-3.76151199987,2.99980074619
0.586790909407,3.08888728026,-4.10769642122,1.27783015358
1.70096130517,2.11964741462,-3.23388084257,-3.25414043902
-2.03486829907,-5.70959245101,-3.81006526392,-3.14611103164
-2.41069790331,-7.37883231665,-3.24624968527,-3.90808162425
0.353472492448,-2.73807218229,0.0475658933774,-3.01005221686
1.31764288821,-4.55731204793,-2.56861852798,-3.72202280947
-3.50818671603,3.10344808643,-1.55480294933,-2.91399340208
-5.97401632027,-0.485791779203,-0.920987370677,-4.25596399469
-5.33984592451,-2.50503164484,-0.937171792029,-5.9779345873
-8.47567552875,-0.0142715104812,1.14664378662,-6.97990517992
-8.03150513299,4.95648862388,0.630459365269,-7.18187577253
-4.33733473722,5.17724875824,-0.835725056082,-1.63384636514
-0.223164341463,-0.041991107395,-0.941909477435,0.00418304224877
2.2110060543,0.888769026968,0.311906101213,-0.0377875503618
0.615176450059,3.77952916133,1.39572167986,0.450241857026
3.18934684582,3.97028929569,1.72953725851,-0.0817287355821
6.76351724158,4.10104943005,2.14335283716,0.896300671808
5.80768763734,0.781809564414,3.39716841581,1.41433007919
8.8618580331,4.52256969878,3.29098399446,3.81235948658
13.0460284289,5.32332983314,1.90479957311,4.99038889397
12.7801988246,2.5140899675,1.50861515176,2.82841830136
11.4743692204,1.74485010186,1.3424307304,1.73644770875
11.0285396161,4.39561023622,2.81624630905,3.45447711614
9.11271001191,11.3363703706,3.1800618877,7.79250652353
8.70688040767,9.91713050495,3.20387746635,9.45053593092
4.35105080343,8.60789063931,3.907693045,6.27856533831
-0.614778800813,7.43865077367,3.15150862365,6.5265947457
0.11939159495,9.23941090803,4.8753242023,7.06462415308
0.72356199071,8.94017104239,5.50913978094,9.01265356047
0.697732386472,9.06093117675,4.30295535959,8.36068296786
0.501902782233,11.2916913111,5.33677093824,4.76871237525
3.22607317799,8.71245144548,6.46058651689,3.15674178264
2.73024357375,7.69321157984,6.80440209554,4.27477119003
-2.04558603049,6.5639717142,4.34821767419,1.66280059742
-3.17141563472,2.53473184857,3.81203325284,-0.859169995194
-5.31724523896,2.70549198293,3.84584883149,3.4988594122
-3.4130748432,5.41625211729,3.71966441014,5.57688881959
-2.38890444744,6.01701225165,5.77347998878,5.89491822698
3.31526594832,8.43777238601,5.84729556743,10.3929476344
5.16943634408,10.9085325204,7.08111114608,12.8309770418
5.23360673984,9.53929265474,6.81492672473,12.6290064491
14.9277771356,12.8800527891,6.55874230338,14.2370358565
9.45194753136,15.9308129235,8.41255788203,14.1750652639
0.556117927123,13.5115730578,9.73637346068,11.0430946713
6.10028832288,13.4523331922,8.69018903932,8.4811240787
0.934458718644,15.2330933265,8.41400461797,5.52915348609
1.26862911441,12.6338534609,6.31782019662,0.857182893476
1.63279951017,6.52461359527,5.53163577527,3.63521230087
2.83696990593,0.0453737296302,6.21545135392,5.19324170825
3.51114030169,0.0361338639923,5.25926693257,3.86127111564
5.02531069745,2.88689399835,4.63308251122,3.07930052303
3.85948109321,7.39765413272,5.57689808986,8.95732993042
2.16365148897,9.50841426708,6.79071366851,13.3353593378
4.84782188473,4.93917440144,4.29452924716,9.1633887452
5.18199228049,10.1399345358,4.71834482581,8.33141815259
4.39616267625,14.1706946702,6.80216040446,13.47944756
6.07033307201,13.2014548045,4.17597598311,7.66747696736
3.63450346778,5.82221493889,3.09979156176,4.60550637475
0.838673863534,3.84297507325,3.46360714041,5.07353578214
4.7328442593,5.97373520761,3.09742271905,8.83156518953
3.14701465506,4.98449534197,1.5312382977,6.86959459692
2.36118505082,1.66525547633,-0.474946123648,2.84762400431
0.665355446579,0.826015610695,0.538869455,4.3656534117
2.60952584234,0.836775745058,3.33268503365,4.61368281909
6.0936962381,-0.42246412058,3.8765006123,3.10171222647
5.05786663386,6.83829601378,4.26031619095,4.88974163387
3.56203702962,0.699056148142,1.9441317696,2.24777104125
0.0362074253826,-2.2601837175,0.297947348245,-2.41419955136
-2.98962217885,-2.04942358313,-0.778237073107,-2.83617014397
-1.7154517831,-1.60866344877,-1.35442149446,-1.65814073658
0.928718612666,-0.637903314409,-2.24060591581,-1.52011132919
1.84288900843,-2.16714318005,-3.19679033716,1.04791807819
3.55705940419,-0.0763830456854,-3.59297475851,1.16594748558
3.87122979995,-6.20562291132,-4.94915917986,-3.92602310703
-0.464599804292,-4.54486277696,-3.58534360121,-3.67799369964
-2.99042940853,-0.7041026426,-2.55152802257,-2.37996429225
-2.67625901277,-0.0233425082388,-2.13771244392,-3.10193488486
-4.53208861701,-2.76258237388,-2.69389686527,-3.43390547747
-4.77791822125,-1.45182223951,-3.79008128662,-2.31587607008
-7.68374782549,-3.47106210515,-2.81626570797,-3.29784666269
-7.92957742973,-4.47030197079,-1.18245012932,-7.1598172553
-8.44540703397,-6.28954183643,-1.26863455068,-5.66178784791
-5.92123663821,-6.94878170207,-1.35481897202,-6.59375844052
-4.71706624244,-11.4480215677,-4.72100339338,-8.98572903313
-5.96289584668,-9.42726143334,-3.73718781473,-7.01769962574
-1.98872545092,-3.97650129898,-2.03337223608,-2.36967021836
-4.82455505516,-8.16574116462,-4.41955665743,-6.75164081097
-9.5203846594,-7.64498103026,-3.76574107878,-8.75361140358
-8.00621426364,-8.0742208959,-2.24192550013,-8.71558199619
-7.91204386788,-13.4734607615,-2.54810992148,-11.7275525888
-9.25787347212,-11.8327006272,-2.76429434284,-10.0095231814
-3.60370307636,-6.29194049281,-3.25047876419,-3.83149377403
-1.4095326806,-7.85118035845,-2.64666318554,-5.71346436664
-0.695362284836,-10.4304202241,-2.26284760689,-6.89543495925
-1.57119188907,-3.57966008973,-2.71903202824,-3.00740555186
-4.92702149331,-8.83889995536,-3.78521644959,-7.60937614447
-3.49285109755,-14.368139821,-5.37140087094,-11.1113467371
-2.17868070179,-11.0073796866,-6.0375852923,-11.2033173297
-3.83451030603,-6.89661955228,-6.25376971364,-8.0952879223
-1.75033991027,-4.89585941792,-5.779954135,-3.95725851491
4.73383048549,-3.14509928356,-7.18613855635,-2.20922910752
2.78800088125,-3.13433914919,-3.8323229777,-1.49119970013
3.39217127701,3.36642098517,-0.198507399051,3.91682970725
3.27634167277,4.08718111953,-0.824691820402,3.87485911464
3.48051206853,2.67794125389,-2.02087624176,3.22288852203
1.4146824643,1.90870138825,-2.50706066311,2.49091792942
2.15885286006,2.24946152262,-1.79324508446,1.59894733681
-1.30697674418,-1.32977834302,-0.739429505809,-3.0230232558
-11.0816673331,-17.2661455418,-0.927221111564,-22.6465053978
-5.45257460651,-12.3150969364,-0.938250650161,-13.4198012035
-5.98348187997,-9.08404833108,-1.22928018876,-6.97309700914
