5.99549781977,8.08931322674,2.08433139535,8.19028706395
1.62576311001,4.2145479594,0.622999650932,6.87890705113
3.66602840025,1.94978269205,-2.37833209348,6.29752703831
1.46629369049,-1.77498257531,-3.9596638379,2.8961470255
2.64655898073,-4.23974784265,-1.08099558231,1.33476701268
0.546824270969,-4.11451311001,-0.562327326728,1.69338699986
-0.80291043879,-5.41927837736,-1.84365907114,-0.877993012959
-0.602645148552,-3.3940436447,-1.38499081556,0.240626974224
2.54762014169,-1.79880891206,0.733677440026,2.98924696141
4.19788543193,-0.753574179405,0.362345695612,1.80786694859
2.60815072217,-3.04833944676,-2.2389860488,-0.16351306423
3.65841601241,-2.76310471411,-1.36031779322,-0.334893077048
2.35868130265,-3.86786998146,0.688350462366,-2.50627308987
-1.24105340711,-4.86263524881,0.297018717953,-2.79765310268
1.58921188313,-4.62740051616,-0.334313026462,-3.3290331155
2.47947717337,-1.75216578351,-0.415644770877,-1.81041312832
-0.270257536395,-1.08693105086,-1.29697651529,-1.94179314114
-1.47999224615,-0.961696318212,-1.68830825971,-3.04317315396
-0.569726955913,-0.726461585557,-0.939640004122,-2.50455316678
-0.00946166567519,0.758773147092,-1.35097174854,-2.45593317959
-3.92919637543,1.44400787974,0.657696507049,-3.12731319241
-3.3289310852,3.68924261239,3.01636476263,-0.828693205229
0.181334205045,2.81447734504,3.31503301822,1.60992678195
-1.63840050472,1.14971207769,2.2537012738,0.108546769134
-1.01813521448,0.0649468103402,1.35236952939,1.02716675632
0.552130075761,-0.859818457011,1.56103778497,-1.3842132565
1.48239536601,1.92541627564,0.899706040556,-1.80559326932
1.79266065624,5.04065100829,0.828374296143,1.12302671786
2.68292594648,5.38588574094,0.747042551728,2.80164670504
0.533191236726,3.79112047359,3.64571080731,2.84026669223
0.263456526962,4.58635520624,5.1143790629,2.07888667941
0.683721817204,4.44158993888,3.35304731848,2.16750666659
-1.41601289256,3.31682467154,2.94171557407,0.0461266537714
-1.19574760232,-0.867940595817,3.78038382965,-1.15525335905
1.59451768792,-1.62270586316,0.669052085239,-1.82663337187
3.51478297816,-0.707471130514,-2.94227965918,0.831986615316
3.2150482684,-1.52223639786,-3.04361140359,-1.1093933975
1.84531355864,-4.05700166522,-2.09494314801,-3.01077341032
-2.42442115112,-5.36176693257,-1.40627489242,-4.15215342314
-2.44415586088,-5.77653219991,-2.13760663684,-4.26353343596
-0.97389057064,-4.20129746727,-0.598938381252,-1.57491344877
-0.0436252803993,0.663937265381,-0.030270125666,-1.33629346159
1.49664000984,0.279171998031,-1.22160187008,-0.65767347441
3.70690530008,0.98440673068,-0.742933614496,-1.21905348723
3.43717059032,4.40964146333,0.985734641088,1.83956649995
5.28743588056,4.11487619598,-0.655597103327,4.16818648714
1.7777011708,5.98011092863,0.363071152258,5.61680647432
0.117966461039,5.52534566128,1.47173940784,2.2854264615
-3.62176824872,6.72058039393,1.02040766343,4.05404644868
-2.57150295848,8.58581512658,3.88907591901,7.63266643586
0.778762331756,3.46104985923,3.8577441746,3.63128642304
2.609027622,-0.433715408122,-1.13358756982,1.75990641023
5.73929291224,2.03151932453,-1.17491931423,8.54852639741
-2.38044179752,0.076754057176,-2.16625105864,5.71714638459
-4.87017650728,-0.848011210175,-2.70758280306,-0.0542336282288
-4.66991121704,0.50722352248,-1.51891454748,-0.345613641046
-2.11964592681,0.902458255128,-1.32024629189,-0.146993653863
-0.849380636562,2.43769298778,-1.02157803631,0.971626333318
-2.77911534632,2.35292772043,-1.83290978072,0.840246320498
-0.658850056083,-0.0218375469267,-3.99424152514,0.658866307682
-0.0385847658436,-2.19660281427,-3.64557326955,-1.97251370514
-6.29831947561,-1.71136808162,-1.57690501397,-6.86389371795
-2.20805418536,-3.37613334897,-2.34823675838,-9.37527373077
-2.70778889512,-5.51089861632,-4.8595685028,-9.19665374359
-3.24752360488,-6.77566388368,-4.85090024721,-10.5080337564
-4.00725831465,-5.58042915102,-3.31223199163,-10.6394137692
-0.496993024404,-1.13519441837,-2.45356373604,-7.69079378205
-3.07672773417,-1.79995968573,-0.544895480454,-5.63217379486
-4.35646244392,-3.70472495308,2.49377277513,-7.15355380768
-4.55619715369,-3.48949022043,1.38244103072,-4.1349338205
-0.675931863447,-4.25425548778,-1.5788907137,-4.82631383332
-0.985666573208,-3.05902075512,-1.79022245811,-1.54769384614
3.23459871703,-1.03378602248,-1.33155420253,0.980926141046
5.44486400727,1.34144871017,-0.242885946946,3.83954612823
5.66512929751,3.70668344282,1.73578230864,5.40816611541
5.94539458775,3.05191817547,2.35445056423,3.14678610259
1.61565987799,5.42715290812,4.51311881981,5.29540608977
0.22592516823,2.73238764077,2.75178707539,5.90402607696
0.156190458471,6.10762237342,2.43045533098,6.39264606414
0.486455748709,4.97285710607,0.929123586566,5.99126605132
3.83672103895,2.05809183872,-2.95220815785,4.2298860385
0.746986329188,2.54332657137,-0.173539902264,4.02850602568
-5.62274838057,-2.36143869598,1.25512835332,-2.92287398714
-7.04248309033,-3.66620396333,1.82379660891,-5.18425399995
-8.27221780009,-2.65096923068,1.76246486449,-2.07563401277
-5.48195250985,-4.86573449803,-0.458866879924,-4.24701402559
-4.19168721961,-1.33049976538,1.42980137566,-5.67839403841
-5.69142192937,0.694734967266,1.64846963125,-2.18977405123
-7.12115663913,-5.30003030008,-0.0128621131698,-4.80115406404
-8.02089134889,-7.88479556744,-0.564193857585,-8.46253407686
-15.5606260587,-5.80956083479,0.00447439800155,-9.85391408968
-14.2403607684,-6.96432610213,-0.156857346416,-10.0052941025
-7.92009547817,-3.01909136948,1.37181090917,-4.59667411532
-4.89983018793,-0.873856636834,1.30047916476,-0.128054128134
-3.67956489769,-1.88862190419,-0.610852579659,-0.729434140954
-0.689299607453,1.62661282846,-0.602184324074,3.53918584623
1.43096568279,3.54184756111,2.00648393151,3.73780583341
0.561230973028,5.85708229377,3.0451521871,4.05642582059
-1.83850373673,2.96231702641,4.06382044268,1.01504580777
-4.87823844649,4.98755175906,4.32248869827,2.04366579496
-1.45797315626,2.07278649171,2.48115695385,2.13228578214
-2.13770786602,0.0980212243594,0.629825209435,-2.62909423068
-4.01744257578,4.40325595702,1.15849346502,-0.820474243499
-0.737177285533,0.728490689664,0.677161720607,-1.42185425632
-1.5169119953,-2.05627457769,0.405829976193,-3.29323426913
-1.14664670506,0.688960154959,1.37449823177,1.44538571805
2.18361858518,2.17419488761,1.76316648736,2.22400570523
4.17388387542,2.91942962026,2.20183474295,5.15262569241
3.49414916566,2.44466435291,3.47050299853,3.23124567959
5.1244144559,1.15989908556,1.82917125412,2.46986566678
6.73467974614,1.82513381821,1.3678395097,3.87848565396
5.16494503638,4.58036855086,1.82650776529,1.82710564114
9.54521032662,3.50560328351,-0.284823979127,0.99572562832
8.88547561686,0.740838016158,-1.47615572354,-0.0556543844978
3.6357409071,0.446072748808,1.48251253204,2.49296560268
2.01600619734,0.701307481457,1.29118078763,3.37158558987
5.14627148758,-1.61345778589,-1.46015095679,0.910205577047
4.29653677782,0.261776946758,-1.7914827012,0.92882556423
-2.03319793194,1.07701167941,0.617185554382,1.19744555141
-2.6229326417,-1.36775358794,-0.194146190033,1.96606553859
2.09733264854,-1.7825188553,-0.185477934448,4.04468552578
2.42759793878,-1.05728412265,-2.36680967886,5.15330551296
2.59786322902,2.30795061,-2.28814142328,6.14192550014
6.28812851926,-1.02681465734,-2.13947316769,4.94054548732
6.5083938095,-3.70157992469,-3.31080491211,0.309165474502
6.63865909974,-4.75634519205,-3.39213665652,-3.73221453832
5.55892438998,-4.0011104594,-5.36346840094,-3.98359455113
0.839189680217,-2.36587572675,-4.81480014535,-2.99497456395
-5.56536337208,-7.74474200581,-3.46708938954,-8.76606468024
-8.18466990362,-8.63511270257,-3.48597503892,-9.13564683094
-6.64397643517,-8.51548339933,-3.46486068829,-11.6252289816
-3.83328296671,-4.23585409609,-1.83374633767,-8.01481113235
-0.172589498248,-2.21622479284,-0.682631987047,-7.73439328306
0.608103970208,-0.336595489603,1.47848236357,-6.51397543376
1.42879743866,-1.86696618636,1.4395967142,-5.71355758447
0.689490907123,-1.92733688312,1.73071106482,-2.86313973517
2.65018437558,0.942292420121,0.211825415443,-0.212721885877
3.45087784404,-0.90807827664,-1.16706023393,-0.892304036583
5.3915713125,-0.2584489734,0.95405411669,-2.35188618729
7.02226478096,1.07118032984,0.515168467313,-2.45146833799
3.30295824941,-0.399190366919,-0.783717182065,-4.2510504887
1.66365171787,-0.119561063675,-1.60260283144,-2.9906326394
3.54434518633,1.23006823957,-1.98148848082,-2.50021479011
3.56503865479,-1.02030245719,-1.0903741302,-2.23979694081
3.62573212325,1.73932684605,-0.929259779576,-0.129379091515
1.27642559171,-0.111043850709,-0.228145428953,-3.93896124222
3.27711906016,-0.951414547471,-0.65703107833,-4.68854339292
4.59781252862,-1.44178524423,-1.92591672771,-0.48812554363
2.82850599708,-6.97215594099,-2.32480237708,-1.97770769434
3.28919946554,-10.1825266377,-4.29368802646,-1.82728984504
4.539892934,-10.9128973345,-6.03257367584,-6.50687199575
12.0405864025,-9.88326803126,-2.61145932522,-8.57645414645
16.8212798709,-11.103638728,0.679655025406,-1.27603629715
7.03197333937,-12.1440094248,-1.95923062397,-6.02561844786
-6.94733319217,-8.29438012154,-2.13811627335,-10.2552005986
-14.3466397237,-7.8147508183,-1.21700192273,-8.94478274927
-10.8159462553,-2.08512151506,-1.5258875721,-4.23436489997
-5.1252527868,-1.83549221182,-1.61477322148,-0.60394705068
-5.82455931834,-4.75586290858,-2.46365887086,-0.793529201384
-2.96386584988,-1.55623360533,-0.182544520236,1.05688864791
1.41682761857,-4.38660430209,-1.96143016961,-1.6326935028
1.16752108703,-3.52697499885,-2.99031581899,-3.3422756535
1.38821455549,0.812654304387,-0.819201468368,0.108142195795
4.03890802395,0.572283607627,-1.06808711775,2.53856004509
3.49960149241,3.11191291087,-1.43697276712,5.16897789439
3.90029496087,2.89154221411,-0.455858416501,6.87939574368
2.42098842932,5.07117151735,0.845255934122,7.55981359298
3.80168189778,5.41080082059,2.31637028475,7.84023144227
3.39237536624,4.14043012383,1.11748463537,7.54064929157
1.9130688347,1.45005942708,-0.961401014009,2.86106714086
-2.80623769684,2.23968873031,0.829713336614,2.58148499016
-2.13554422839,3.71931803356,1.14082768724,2.40190283945
2.12514924007,0.0389473367977,-0.198057962143,1.11232068875
-0.204157291471,-0.0214233599618,0.0130563884795,2.89273853804
-2.19346382301,-0.79179405672,0.754170739103,3.49315638734
-3.27277035455,-3.16216475348,-0.414714910274,2.81357423663
-2.51207688609,-4.49253545024,-2.95360055965,-0.0160079140733
0.11861658236,-4.412906147,-2.12248620903,-1.83559006478
-0.40068994918,-2.51327684375,-1.01137185841,0.794827784519
-2.68999648072,-3.22364754052,-2.77025750778,-0.0847543661876
-0.699303012261,0.475981762727,-2.00914315716,1.35566348311
-1.1486095438,5.40561106597,-0.57802880654,7.8560813324
1.59208392465,7.64524036921,1.01308554408,8.6464991817
1.32277739311,6.39486967245,2.33419989471,4.52691703099
-2.70652913843,5.87449897569,3.34531424533,4.31733488029
-2.06583566998,3.77412827893,3.16642859595,2.60775272958
-1.72514220151,0.563757582171,2.02754294657,2.14817057888
-4.03444873305,2.07338688541,1.4286572972,-0.341411571826
-6.0237552646,1.83301618866,0.419771647821,-1.57099372253
-2.68306179614,2.3326454919,0.270885998443,1.53942412676
-3.98236832768,1.24227479514,0.182000349067,2.69984197606
-4.39167485922,2.97190409838,-0.196885300313,3.63025982535
-4.75098139077,5.17153340162,0.294229050311,5.20067767465
-2.67028792231,1.87116270486,0.345343400933,1.93109552394
-4.61959445385,3.7507920081,1.64645775156,1.21151337324
-2.70890098539,3.83042131134,2.31757210218,4.21193122253
-0.678207516932,5.78005061458,1.5186864528,7.49234907183
-1.03751404848,6.05967991782,1.89980080342,6.70276692112
-3.36682058002,6.90930922106,4.69091515405,6.67318477042
-5.66612711156,6.80893852431,5.79202950467,5.52360261971
-5.3154336431,3.50856782755,6.01314385529,4.70402046901
-9.32474017464,2.77819713079,4.32425820591,1.5744383183
-9.39404670619,6.73782643403,3.07537255654,3.8848561676
-5.57335323773,5.87745573727,5.24648690716,2.66527401689
-4.59265976927,3.82708504051,4.70760125778,0.67569186619
-2.56196630081,5.32671434376,3.7287156084,4.55610971549
-0.241272832351,5.62634364699,6.02982995903,5.12652756478
-2.6805793639,10.5759729502,7.48094430965,9.49694541408
-5.03988589544,8.83560225348,7.22205866027,8.09736326337
-0.369192426977,9.09523155672,6.3031730109,7.19778111267
-1.06849895852,14.12486086,6.91428736152,12.438198962
-0.0578054900652,13.5344901632,5.86540171214,11.0286168113
-1.29711202161,13.8941194664,3.91651606276,8.01903466055
-4.49641855315,11.3337487697,3.45763041339,7.26945250985
-4.03572508469,11.3833780729,3.36874476401,6.76987035914
-2.94503161623,10.2530073762,4.10985911463,9.38028820843
-2.09433814777,7.9826366794,2.72097346525,6.44070605773
2.41635532069,6.06226598264,-0.357912184123,2.68112390703
-0.942951210855,5.00189528588,-2.1867978335,5.44154175632
0.597742257603,1.07152458913,-2.11568348288,3.08195960562
0.0384357260591,4.43115389237,-0.624569132257,3.65237745491
1.90912919452,8.15078319561,-0.173454781634,8.12279530421
5.47982266298,11.3604124988,0.817659568989,10.0132131535
4.47051613143,14.0900418021,3.51877391961,12.2536310028
3.66120959989,11.2396711053,4.25988827024,12.5440488521
8.60190306835,8.30930040857,3.23100262086,8.70446670139
8.99259653681,9.14892971181,2.97211697148,7.13488455068
11.9432900053,7.54855901506,1.6032313221,6.76530239998
12.3439834737,7.5081883183,2.75434567273,7.00572024927
10.9046769422,5.48781762154,0.445460023349,3.86613809857
7.45537041064,1.70744692478,0.29657437397,2.31655594786
5.0260638791,-0.0929237719829,0.317688724592,1.52697379716
5.39675734756,-0.913294468741,0.638803075215,1.46739164645
4.78745081601,-2.4436651655,-0.410082574163,-2.25219050425
4.55814428447,-3.08403586226,-1.16896822354,-3.64177265496
1.35883775293,-6.18440655902,-1.07785387292,-2.87135480566
-0.560468778611,-8.92477725578,-3.13673952229,-5.52093695637
2.36022468984,-6.41514795254,-2.92562517167,-3.92051910707
2.67091815831,-6.16551864929,-2.03451082105,-3.25010125778
-1.10838837324,-7.31588934605,0.336603529575,-4.04968340848
-3.97769490478,-7.71626004281,0.657717880196,-3.64926555919
2.76299856368,-8.33663073957,-0.891167769181,-4.28884770989
0.663692032136,-9.41700143633,-2.85005341856,-9.2184298606
-4.9056144994,-9.63737213309,-4.14893906794,-11.7480120113
-6.69492103095,-13.5577428298,-5.19782471731,-13.437594162
-4.55422756249,-12.1881135266,-5.70671036669,-9.43717631271
-6.93353409403,-8.69848422337,-3.95559601607,-7.46675846342
-1.23284062557,-6.09885492012,-2.75448166544,-6.15634061412
2.87785284289,-7.31922561688,-1.87336731482,-6.15592276482
-0.711453688658,-7.04959631364,-1.3622529642,-10.0555049155
-0.600760220201,-10.5899670104,-4.46113861358,-15.2350870662
1.98993324826,-13.9203377072,-9.04002426295,-17.2346692169
1.02062671672,-13.9707084039,-7.58890991233,-17.5742513676
-3.40867981482,-13.0310791007,-7.09779556171,-14.9238335184
-1.32798634637,-12.6814497974,-4.96668121109,-11.9634156691
0.612707122091,-10.5118204942,-3.33556686046,-10.4229978198
-10.3219222384,-7.01931322675,-4.04244549419,-9.53521438954
-5.48923079563,-7.82238752633,-3.41910112617,-9.8274624897
-9.7765393529,-7.72546182591,-1.95575675815,-7.35971058987
-13.0338479102,-6.46853612549,-2.07241239013,-6.30195869003
-9.00115646744,-4.40161042507,-2.23906802211,-6.0242067902
-8.36846502471,-1.44468472464,-0.885723654097,-1.78645489036
-7.50577358198,0.722240975778,1.15762071392,-1.37870299053
-10.0730821392,-0.880833323801,0.410965081941,-1.48095109069
-14.6703906965,-1.60390762338,0.0443094499587,-4.65319919086
-13.7076992538,-0.216981922957,0.767653817978,-4.21544729102
-8.82500781106,-1.93005622254,-0.379001814003,-4.98769539119
-9.49231636833,-1.19313052212,-1.70565744598,-6.45994349135
-7.5796249256,-1.5362048217,-0.0423130779636,-5.51219159152
-7.05693348287,-0.199279121272,0.621031290055,-4.65443969168
-5.91424204014,-1.39235342086,-0.395624341927,-6.12668779185
-5.55155059741,-1.27542772043,-0.832279973907,-7.60893589201
-4.64885915468,3.64149797999,0.591064394112,-2.55118399218
-1.82616771195,1.63842368041,0.42440876213,-0.263432092341
-0.52347626922,0.215349380833,-1.28224686985,-0.0156801925041
1.29921517351,2.25227508125,-1.57890250183,3.57207170733
2.42190661624,1.09920078167,0.284441866186,4.55982360717
0.394598058974,4.32612648209,1.2377862342,4.747575507
1.0072895017,4.84305218252,0.401130602222,3.95532740684
-1.43001905557,3.99997788294,0.794474970242,2.91307930667
3.27267238716,2.19690358336,0.37781933826,1.40083120651
0.465363829895,0.0338292837805,-0.858836293721,-0.851416893658
2.05805527262,-0.00924501579721,-2.0254919257,1.77633500618
2.13074671536,-2.30231931538,-0.0321475576839,1.37408690601
4.06343815809,-2.83539361495,-1.50880318966,1.11183880585
0.266129600815,-3.33846791453,-1.78545882165,-2.92040929432
-1.62117895645,-2.67154221411,-1.04211445363,-3.25265739448
-2.41848751373,-2.01461651369,-2.43877008561,-4.76490549465
0.284203929004,-3.16769081327,-1.48542571759,-4.21715359481
-1.04310462826,-4.68076511285,-2.81208134957,-6.46940169498
7.40958681447,-2.51383941243,-2.32873698155,-3.62164979514
12.0022782572,2.34308628799,-0.595392613535,4.1861021047
20.1449696999,3.69001198841,-0.292048245516,5.13385400453
10.6276611427,4.43693768884,1.40129612251,5.23160590436
9.78035258539,2.87386338926,0.584640490522,4.6093578042
7.24304402812,0.560789089675,0.797984858542,2.56710970404
5.75573547084,3.6277147901,0.231329226561,5.54486160387
7.25842691358,8.05464049052,1.26467359458,9.48261350371
10.4811183563,7.55156619094,3.6680179626,10.2303654035
9.24380979903,7.46849189136,3.86136233062,10.9581173034
6.36650124177,5.84541759178,5.24470669864,10.5858692032
7.57919268449,6.9223432922,8.66805106665,9.58362110305
8.34188412723,7.88926899263,6.63139543467,10.5513730029
10.04457557,3.44619469305,2.64473980269,6.02912490272
9.49726701268,3.16312039347,4.46808417071,8.93687680255
6.05995845541,5.09004609389,5.75142853873,7.35462870239
3.41264989815,5.49697179431,6.39477290675,6.38238060222
17.8353413409,6.46389749473,7.04811727477,9.12013250206
7.5080327836,4.59082319515,3.82146164278,7.89788440189
6.20072422634,2.42774889557,2.4948060108,6.65563630173
13.3334156691,1.56467459599,1.58815037882,6.21338820156
15.2661071118,3.91160029641,1.98149474684,9.2411401014
9.27879855453,3.42852599683,3.67483911486,4.59889200124
7.10148999725,1.48545169726,3.97818348288,4.49664390107
6.90418143999,-1.07762260232,3.3615278509,2.24439580091
5.79687288271,-3.4606969019,2.68487221892,-0.517852299259
2.59956432545,-4.37377120148,1.55821658693,-1.23010039942
3.99225576818,-3.29684550106,-2.09843904505,0.437651500411
1.99494721091,-3.21991980064,-3.02509467703,0.885403400247
3.06763865364,-3.53299410022,-2.70175030901,-2.11684469992
0.350330096368,-7.83606839979,-2.39840594099,-5.48909280008
-2.1669784609,-5.96914269937,-2.11506157297,-3.51134090025
1.23571298183,-6.30221699895,-4.00171720495,-5.40358900041
0.45840442456,-10.8152912985,-6.48837283693,-11.2558371006
-4.33890413271,-8.21836559811,-5.85502846892,-11.4480852007
-1.22621268998,-3.11143989769,-3.0716841009,-3.24033330091
-0.433521247251,-0.844514197266,-3.14833973288,-0.662581401071
-1.32082980452,-0.59758849685,-4.47499536486,-4.13482950124
-2.78813836179,2.28933720357,-2.27165099684,-2.6970776014
-1.70544691906,1.286262904,-0.538306628821,-1.72932570157
-2.86275547633,-2.63681139559,-1.5749622608,-1.23157380173
2.6199359664,-0.279885695163,-2.61161789278,0.436178098105
1.97262740913,0.12704000526,-2.10827352477,1.73392999794
2.42531885186,0.483965705676,-1.37492915675,3.24168189777
-0.361989705412,-0.0391085939009,-1.50158478873,0.809433797611
-1.50929826268,0.0778171065213,-1.06824042071,3.12718569745
1.35339318005,3.27474280695,-0.624896052692,4.82493759728
-1.49391537722,4.84166850736,-1.80155168467,4.90268949712
-0.171223934492,5.00859420779,0.181792683346,6.34044139695
-0.988532491763,5.84551990821,1.51513705136,6.10819329679
2.01415895097,6.56244560863,0.808481419383,7.16594519662
6.6668503937,4.01937130905,-0.268174212599,2.85369709646
1.79954183643,4.09629700947,-0.774829844579,0.831448996292
0.77223327916,4.81322270989,1.02851452344,6.89920089613
-6.81507527811,4.04014841031,1.98185889146,5.38695279596
-3.72238383538,2.74707411074,0.875203259478,3.8747046958
1.11030760735,1.36399981115,1.2885476275,3.85245659563
-2.34700094992,3.20092551158,3.31189199552,4.42020849547
-5.82430950719,1.537851212,0.895236363534,0.477960395305
-5.33161806446,-2.86522308759,-1.58141926845,-3.38428770486
-2.41892662173,-2.29829738716,-0.628074900429,-2.14653580502
-2.386235179,-3.68137168674,-1.68473053241,-2.06878390519
-2.93354373627,-3.78444598632,-4.11138616439,-5.46103200535
-2.80085229354,-3.3075202859,-1.34804179637,-4.42328010552
-6.02816085081,-3.66059458548,-0.264697428354,-4.17552820568
-1.21546940808,-4.50366888505,-0.181353060336,-5.57777630585
-5.55277796535,-0.566743184634,0.611991307684,-3.02002440601
-7.46008652262,0.130182515786,0.335335675702,-3.57227250618
-4.99739507989,-0.24289178379,0.948680043721,-4.99452060634
-5.43470363716,-3.81596608337,-0.41797558826,-6.72676870651
-7.02201219443,-6.75904038295,1.13536877976,-9.10901680667
-8.7793207517,-4.07211468253,1.43871314778,-7.72126490684
-8.50662930897,-2.07518898211,0.642057515795,-6.073513007
-5.74393786624,-4.18826328169,-0.774598116186,-6.29576110717
-7.01124642351,-5.35133758127,-2.68125374817,-12.5480092073
-5.88855498078,-4.58441188085,-2.73790938015,-9.6102573075
-6.28586353805,-3.70748618042,-3.55456501213,-7.39250540766
-0.93317209532,-2.92056048,-1.93122064411,-6.93475350783
5.92951934741,-2.48363477958,0.432123723907,-3.95700160799
1.89221079014,-0.516709079158,-0.404531908072,-0.459249708156
-0.195097767129,0.720216621263,0.568812459947,2.47850219168
-2.1624063244,-0.882857678316,-0.537843172035,-1.87374590848
-4.67971488167,-0.895931977895,-1.41449880402,-2.37599400865
-1.54702343894,-1.42900627747,-1.991154436,-1.45824210881
2.55566800379,-1.49208057705,-1.50781006798,-1.16049020898
2.08835944652,1.80484512337,1.70553430004,4.23726169086
0.181050889252,0.89177082379,1.08887866806,5.02501359069
0.133742331982,3.44869652421,2.42222303608,4.09276549053
0.236433774713,5.57562222463,2.5455674041,5.78051739036
-2.28087478256,3.10254792505,2.75891177211,2.6782692902
-2.60818333983,0.889473625473,1.83225614013,1.45602119003
-0.3254918971,1.36639932589,-0.324399491848,2.00377308987
1.40719954563,2.29332502632,-0.64105512383,3.5815249897
3.48989098836,1.20025072674,1.38228924419,0.839276889539
-3.71934229651,-3.99818313953,0.834574854649,1.91408430232
0.772389471938,-3.65146839521,0.37053627426,1.52669837827
-0.275878759607,-4.34475365088,1.23649769387,-1.92068754578
-4.17414699116,1.05196109344,2.09245911348,1.67192653017
2.35758477729,0.788675837761,1.8384205331,4.68454060611
3.60931654574,0.455390582087,1.51438195271,4.62715468206
-0.728951685815,-1.95789467359,0.630343372321,5.22976875801
7.92278008264,-1.75117992927,0.0163047919323,5.73238283396
9.10451185108,-1.00446518494,-1.67773378846,6.1549969099
4.89624361953,-1.88775044062,0.478227631154,2.39761098585
-2.81202461202,-4.5910356963,-1.47581094923,-0.409774938202
-5.77029284357,-1.88432095197,-0.639849529622,1.62283913775
-0.338561075117,-0.987606207651,0.426111889992,2.4154532137
6.32317069333,1.16910853667,-0.147926690397,3.16806728964
7.35490246178,4.835823281,0.648034729214,7.59068136559
6.00663423023,7.41253802532,0.633996148827,9.86329544154
4.19836599867,6.74925276964,0.0599575684391,8.74590951749
4.73009776713,5.70596751397,0.695918988049,7.19852359343
4.93182953557,5.17268225829,1.94188040766,5.29113766938
1.08356130402,1.05939700261,1.99784182727,2.95375174533
0.32529307247,-1.37388825306,1.49380324689,2.81636582128
-3.05297515908,-0.787173508739,1.5897646665,3.70897989722
-0.881243390628,2.50954123558,2.40572608611,4.70159397317
2.02048837782,2.44625597991,2.80168750572,4.25420804912
-0.147779853734,0.932970724229,2.38764892533,0.916822125066
1.03395191472,-1.03031453145,0.423610344944,-1.13056379899
