-3.89634447674,21.2533430233,-2.57791061047,0.944371366277
-6.66518526254,-0.369406473161,-5.43101315007,-6.72548585996
-9.84402604834,9.15784403041,0.355884310331,2.1546569138
-6.56286683414,30.945094534,1.28278177073,5.90479968755
-15.7317076199,24.4023450375,3.65967923114,3.81494246131
2.81945159426,29.0395955411,4.62657669153,9.33508523507
-16.3393891915,25.5368460447,4.04347415194,1.81522800883
-25.2382299773,28.4540965483,8.75037161234,8.35537078259
-19.4970707631,2.07134705183,-2.00273092726,-1.71448644365
-22.0559115489,10.7285975554,3.45416653314,0.00565633011138
-14.5247523347,13.485848059,-1.47893600646,5.15579910387
-15.2835931205,9.09309856254,-1.02203854606,-2.36405812237
-10.7524339063,25.6903490661,0.814858914342,5.43608465139
-20.8812746921,-1.81240043032,7.57175637475,-0.0337725748523
-17.2601154779,14.3848500733,3.54865383515,-2.18362980109
-23.2789562637,-1.27789942317,3.60555129555,-10.7334870273
-14.2977970495,-8.98064891961,-2.20755124405,-7.29334425357
-9.40663783533,-16.103398416,-6.09065378365,-12.3732014798
-2.99547862113,-11.7961479125,-6.91375632325,-6.37305870605
-1.56431940693,8.77110259111,0.29314113715,-2.3129159323
-3.98316019273,-2.39164690532,1.23003859755,-6.68277315853
1.37799902148,-6.64439640175,2.17693605795,-9.39263038478
-1.44084176432,-23.9871458982,-2.77616648165,-16.442487611
-5.31968255013,-2.30989539461,5.29073097876,-0.712344837259
-2.40852333593,-23.512644891,-4.69237156084,-11.8122020635
4.02263587827,-17.2053943875,2.33452589956,-7.08205928974
2.36379509248,6.88185611611,2.18142335996,0.978083484022
3.65495430668,-20.3508933803,-9.95167917964,-3.74177374222
9.01611352088,-6.21364287676,-6.50478171924,-2.65163096846
11.7872727351,-2.67639237319,-1.68788425884,-4.1814881947
12.4284319493,-5.16914186961,-1.82098679843,2.17865457906
9.31959116348,-9.67189136604,-4.52408933804,8.89879735282
4.89075037768,-25.9546408625,-0.427191877632,-4.12105987342
8.08190959188,-9.2773903589,-2.34029441723,0.529082900339
9.67306880608,8.12986014467,3.11660304317,7.6892256741
15.7442280203,1.67711064824,6.81350050357,8.70936844786
19.5853872345,-14.3356388482,2.57039796397,-3.86048877838
12.2965464487,-5.47838834462,0.387295424374,-0.420346004625
9.02770566288,11.0288621589,8.12419288477,12.8897967691
6.89886487708,10.0761126625,3.21109034518,20.8399395429
2.74002409129,-14.4766368339,-0.872012194424,14.3300823167
7.16118330548,-1.74938633034,1.49488526598,14.4102250904
11.9623425197,-9.40213582677,1.90178272638,8.21036786417
8.76350173388,-15.5148853232,3.40868018678,6.75051063793
11.5546609481,-1.89763481963,3.56557764718,3.59065341169
9.35582016229,0.569615683944,-0.787524892417,4.03079618545
3.45697937649,-3.15313381248,1.09937256798,6.59093895921
6.17813859069,-5.55588330891,4.27627002839,6.76108173297
7.73929780489,-12.2986328053,-0.996832511217,0.631224506727
5.68045701909,-12.7713823018,-2.32993505081,-12.4086327195
7.49161623329,-1.4141317982,0.38696240959,-5.39848994575
11.6027754475,-5.82688129463,0.0338598699927,1.54165282801
13.6039346617,-15.3996307911,-2.62924266961,-2.28820439823
10.1350938759,11.4776197125,1.33765479079,11.1419383755
6.04625309009,-7.49512978392,-2.97544774881,-0.0279188507157
3.55741230429,-16.8678792804,1.25144971159,1.93222392304
3.0885715185,-4.52062877678,1.19834717199,9.0823666968
-0.630269267305,5.54662172679,0.355244632396,-5.63749052944
2.5608899469,-7.96612776964,-1.7478579072,-3.49734775568
7.03204916109,-17.3488772661,-5.7409604468,-6.23720498192
7.1632083753,-10.2016267625,0.1659370136,0.77293779184
1.9043675895,-8.00437625893,-1.997165526,1.7730805656
1.1655268037,-9.28712575536,-3.4202680656,-9.22677666064
3.3266860179,-9.40987525179,-1.8133706052,-3.71663388688
10.8778452321,-8.13262474821,-2.9664731448,-8.28649111312
12.2690044463,-8.14537424464,-4.5695756844,-4.06634833936
3.8801636605,-5.60812374107,-5.432678224,-3.6262055656
1.4813228747,-7.8108732375,-5.96578076359,-8.68606279184
4.4124820889,-9.67362273393,-3.18888330319,-9.65592001808
3.3136413031,-0.856372230359,0.118014157211,-6.37577724432
-3.5151994827,-1.31912172679,-0.795088382387,-2.05563447056
1.4059597315,1.41812877678,2.19180907801,8.8945083032
10.9171189457,4.31537928035,1.69870653841,8.99465107696
7.74827815991,0.0526297839242,-2.92439600118,-6.38520614929
3.51943737411,0.559880287496,-1.39749854078,5.58493662447
8.5605965883,-2.27286920894,-0.770601080385,9.35507939823
6.88175580251,-0.455618705364,-2.30370361998,14.575222172
6.41291501671,0.881631798205,-0.176806159579,13.2653649458
9.53407423091,7.72888230178,0.840091300823,4.03550771951
7.76523344511,5.77613280535,2.06698876122,-3.64434950673
4.79639265931,0.863383308919,3.61388622162,-2.13420673297
0.207551873511,9.77063381249,3.94078368202,5.01593604079
0.98871108771,1.14788431606,-1.93231885758,-1.65392118545
5.26987030191,11.2651348196,-0.0954213971745,-5.46377841169
5.78102951611,9.1723853232,2.90147606323,-2.90363563793
3.14218873031,-2.48036417323,2.05837352363,-2.57349286417
3.09334794451,0.456886330339,3.33527098403,-0.703350090413
0.854507158714,3.23413683391,0.412168444433,-7.82320731665
2.63566637292,0.481387337481,-1.32093409517,-2.93306454289
10.4168255871,1.77863784105,0.535963365233,-2.56292176913
15.5579848013,-0.414111655376,-2.09713917437,-6.50277899537
12.5791440155,-3.64686115181,-2.69024171396,-1.95263622161
5.24030322972,4.34038935176,-2.13334425357,-1.71249344786
8.50146244392,3.09763985534,-3.51644679316,-9.2323506741
5.70262165812,2.77489035891,-2.27954933276,-3.47220790034
2.97378087232,3.38214086248,0.78734812764,-1.36206512658
3.44494008652,9.27939136605,-0.995754411957,6.29807764718
2.72609930072,9.41664186962,-3.91885695156,5.28822042094
-1.37274148508,0.353892373187,-2.41195949115,-3.5916368053
-5.04158227088,-1.44885712324,-0.465062030755,-3.04149403154
0.85957694332,-1.61160661967,-0.548164570355,3.42864874222
-0.329263842479,-5.5143561161,-0.451267109951,5.76879151598
0.271895371723,12.1528943875,-2.86436964955,0.0789342897369
-7.08694541407,8.41014489104,-2.96747218915,-2.1809229365
-13.1757861999,5.10739539461,-3.72057472875,7.77921983726
-9.53462698567,-4.84535410182,-4.07367726835,0.259362611016
-7.92346777147,-8.83810359825,-1.25677980795,-11.6204946152
-2.23230855728,-2.93085309468,-1.06988234754,-2.93035184147
-5.94114934307,0.766397408894,1.27701511286,-7.23020906771
-9.33999012887,17.3936479125,2.89391257326,-9.52006629395
-14.4888309147,-16.419101584,-2.63918996634,-4.04992352019
-13.2876717005,-18.5118510804,-0.292292505939,2.33021925357
-2.53651248627,-3.61460057682,-0.125395045539,-2.00963797267
-5.82535327207,1.07264992674,-1.08849758514,-11.4694951989
-6.43419405787,-0.400099569681,0.348399875264,-4.74935242515
-9.59303484367,0.147150933892,0.735297335665,4.18079034861
-12.7018756295,1.63440143746,0.742194796065,4.69093312237
-14.2907164153,4.44165194103,2.86909225647,5.06107589613
-10.8095572011,13.3489024446,1.53598971687,0.0412186698886
-6.78839798686,1.82615294817,1.00288717727,1.38136144365
-4.32723877266,-6.50659654826,2.54978463767,8.77150421741
-9.85607955847,7.14065395531,2.73668209807,-1.07835300883
-8.80492034426,10.1279044589,2.82357955847,-4.61821023507
-5.25376113006,11.4051549625,3.57047701887,-3.68806746131
-4.01260191586,7.82240546602,3.99737447928,2.43207531245
-9.18144270166,10.6896559696,3.89427193968,9.08221808621
-10.1902834875,10.4569064732,3.90116940008,9.45236085996
-6.54912427326,3.64415697674,3.90806686048,5.96250363372
15.2504941861,-7.43353924418,-1.45684956396,1.29147892442
11.6354691792,-4.28421431514,-1.33921709052,4.67805873466
15.1204441723,-1.1948893861,-2.25158461707,6.54463854491
12.2554191655,-4.66556445705,-3.04395214362,-0.728781644846
8.01039415859,-8.82623952801,-3.59631967017,-7.9022018346
10.7553691517,-3.50691459897,-5.23868719672,3.48437797564
9.68034414485,4.74241033007,-3.53105472328,6.99095778589
6.14531913799,8.63173525911,-0.973422249826,4.09753759613
6.79029413112,3.69106018816,-0.635789776377,1.40411740638
11.9752691243,3.7603851172,0.87184269707,4.17069721662
6.90024411738,8.96971004624,3.67947517052,6.82727702687
9.06521911052,10.3990349753,2.38710764397,8.42385683712
11.1001941037,3.08835990432,1.88474011741,7.28043664736
8.35516909678,3.73768483337,1.31237259086,0.117016457607
9.76014408992,5.07700976241,-0.439994935688,2.88359626785
8.48511908305,4.00633469145,-0.252362462241,-0.429823921902
5.58009407618,2.73565962049,-0.204729988793,-1.89324411166
3.40506906931,0.544984549535,-0.887097515344,-2.05666430141
1.35004406245,12.4543094786,-2.1094650419,0.239915508835
1.95501905558,12.0336344076,-2.79183256845,1.70649531908
6.16999404872,-2.89704066334,-2.514200095,1.13307512932
7.06496904185,-2.6277157343,-2.92656762155,0.0296549395698
3.61994403498,-2.76839080525,-2.9389351481,-1.76376525019
2.05491902811,-2.73906587621,-2.87130267466,-0.96718543994
4.35989402125,-0.489740947171,-1.65367020121,4.85939437031
0.35486901438,-3.46041601813,-0.866037727759,-0.484025819447
2.98984400751,-4.42109108909,-1.67840525431,-2.7074460092
0.214819000645,-2.07176616004,-2.61077278086,-1.60086619896
-11.0302060062,-2.582441231,-1.59314030741,-5.71428638871
-11.9652310131,-2.36311630196,-0.0855078339664,-3.71770657847
-6.94025601996,-0.663791372917,1.12212463949,-0.121126768221
-6.69528102682,5.50553355613,3.16975711293,1.47545304202
-8.75030603369,2.19485848517,2.77738958638,1.16203285227
-11.4153310406,2.77418341421,0.575022059827,-3.03138733749
-12.2403560474,0.163508343256,-0.607345466728,-11.4148075272
-16.2853810543,-9.15716672771,-0.769712993279,-17.888227717
-22.2804060612,-5.60784179866,0.307919480172,-8.30164790675
-21.145431068,-8.63851686962,-0.75444804638,-2.7450680965
-20.5204560749,-5.41919194058,0.303184427066,-4.40848828626
-15.9854810818,4.12013298846,0.650816900514,-7.18190847601
-14.8005060886,-6.38054208249,-0.911550626035,-9.40532866577
-17.8155310955,-5.35121715345,-0.673918152585,-7.30874885552
-14.1805561024,-1.69189222441,0.223714320859,-4.26216904528
-8.92558110923,-1.49256729537,0.93134679431,-2.16558923503
-10.7606061161,-3.30324236632,1.91897926776,-3.17900942479
-11.655631123,0.186082562719,3.11661174121,-3.70242961454
-3.92065612982,5.26540749176,3.18424421465,-1.06584980429
-3.74568113669,6.3547324208,2.9518766881,4.15073000595
-4.39070614356,1.95405734985,1.77950916155,-1.3326901838
-4.30573115043,1.35338227888,1.157141635,-1.60611037356
-6.2107561573,5.30270720793,0.114774108446,2.10046943669
-8.10578116416,0.792032136971,0.442406581897,-2.24295075307
-8.15080617103,-4.39864293399,3.35003905535,-5.13637094282
-9.0758311779,-4.68931800494,2.28767152879,-3.64979113258
-9.36085618476,-6.6099930759,1.53530400224,-6.49321132233
-9.79588119163,-3.21066814686,1.68293647569,-7.52663151209
-11.4709061985,-4.75134321782,-0.369431050862,-7.69005170184
-15.4959312054,-3.95201828878,0.158201422582,-5.1734718916
-14.7609562122,-5.51269335973,-0.234166103968,-5.13689208135
-12.1659812191,-4.39336843069,-0.156533630518,-1.30031227111
-7.49100622596,-0.754043501653,1.28109884293,6.13626753914
1.04396876717,-0.434718572607,-0.451268683624,6.42284734939
1.2889437603,-0.575393643565,0.156363789825,4.97942715963
-0.596081246567,2.24393128548,-0.056003736725,1.06600696988
1.41889374657,6.02325621452,-0.388371263281,0.812586780123
-0.266131260298,0.812581143564,0.759261210169,3.65916659037
-2.32115626717,-0.978093927399,0.126893683617,0.275746400614
3.17381872597,-2.02876899835,-1.67547384293,-0.447673789142
5.1387937191,-2.26944406931,-1.77784136949,-0.791093978894
3.64376871223,-0.640119140269,-0.810208896037,-0.75451416865
0.958743705367,-3.32079421123,0.137423577413,3.6420656416
-0.536281301502,-5.00146928218,-0.834943949143,-0.58135454816
-1.03130630837,-3.43214435314,-0.737311475696,-2.58477473791
0.863668684768,-1.1128194241,-0.219679002246,-1.53819492767
2.7886436779,-4.30349449506,-0.852046528795,-1.72161511742
4.01361867103,-5.02416956602,-1.40441405535,-2.40503530718
6.44859366416,-2.91484463697,-0.456781581899,2.91154450307
5.6435686573,0.764480292066,2.21085089155,4.73812431331
1.77854365043,3.65380522111,3.338483365,5.59470412356
4.45351864356,0.093130150155,1.64611583844,5.3212839338
2.7984936367,0.0724550791929,3.73374831189,2.49786374405
1.43346862983,2.40178000824,3.70138078534,3.20444355429
6.79844362296,1.26110493728,2.15901325879,8.11102336454
7.0934186161,0.97042986632,2.79664573224,8.10760317479
7.12839360923,4.34975479536,1.57427820568,5.97418298503
10.3933686024,2.64907972441,1.77191067913,2.77076279528
9.2983435955,2.93840465345,0.769543152579,5.66734260552
9.20331858863,3.87772958249,1.20717562603,4.66392241577
15.9982935818,2.91705451153,2.35480809948,7.15050222601
12.6732685749,4.72637944057,4.37244057293,10.2070820363
12.448243568,7.40570436962,5.52007304637,13.3336618465
12.1932185612,5.77502929866,4.90770551982,13.0102416567
7.36819355429,3.3443542277,3.81533799327,2.04682146699
9.42316854743,5.15367915675,3.76297046672,4.77340127724
7.89814354056,3.34300408579,2.65060294017,5.11998108749
1.86311853369,2.69232901483,2.20823541361,-0.23343910227
4.07809352683,-2.17834605613,0.115867887063,-0.946859292022
4.81306851996,-5.35902112709,-0.836499639488,-2.26027948178
4.91804351309,-6.02969619805,0.23113283396,-1.54369967153
4.25301850622,-5.200371269,1.30876530741,-1.35711986129
3.01799349936,-2.78104633996,0.626397780859,-0.980540051041
1.56296849249,-1.20172141092,1.2840302543,-3.2639602408
3.66794348562,-1.62239648187,2.12166272775,1.01261956945
1.38291847875,-2.54307155283,3.0392952012,-0.800800620305
-3.91210652811,-2.89374662379,2.13692767465,-1.12422081006
-3.17713153498,-0.704421694747,1.4745601481,3.18235900019
-0.742156541844,-0.0550967657073,1.41219262154,5.47893881043
-1.79718154871,-0.905771836664,1.709825095,5.80551862068
-2.53220655558,4.07355309237,1.67745756844,0.162098430921
-3.69723156244,4.30287802142,1.75509004189,0.518678241166
-2.74225656931,-1.37779704954,-1.25727748466,-0.834741948589
-0.637281576182,1.9815278795,-2.69964501121,-0.548162138342
-0.302306583049,5.35085280854,-2.11201253777,0.718417671904
-1.53733158991,7.00017773759,0.535619935683,3.99499748215
0.567643403218,4.92950266663,-1.06674759087,3.63157729239
2.79261839635,2.28882759567,-2.37911511742,-0.471842897361
2.36759338948,5.12815252472,-1.38148264397,-0.0252630871164
2.30256838262,0.907477453755,-1.57385017052,2.78131672313
0.887543375753,1.3068023828,-2.27621769708,1.38789653338
-1.34748163112,7.29612731184,-1.41858522363,1.51447634362
0.397493362016,5.17545224088,-2.60095275018,-1.90894384613
2.52246835515,2.13477716993,-3.68332027673,-5.41236403589
-0.412556651714,-0.345897901028,-4.07568780328,-7.24578422564
-2.62758165858,-2.55657297199,-3.99805532984,-6.8292044154
-5.95260666545,-5.28724804295,-5.07042285639,-11.5526246052
-5.59763167232,-9.10792311391,-6.98279038294,-13.1760447949
-2.78265667918,-8.68859818486,-7.95515790949,-7.69946498466
-0.217681686052,-5.99927325582,-6.26752543604,-4.96288517441
9.82646438955,6.22927688954,-5.71481104651,-5.69989098837
9.44792016688,3.27163571805,-7.44293533121,-7.82825023462
6.79937594421,0.913994546561,-7.49105961591,-8.93660948087
3.21083172154,1.29635337507,-6.27918390061,-9.45496872711
3.48228749887,0.838712203582,-6.81730818531,-9.93332797336
4.9237432762,1.3010710321,-6.17543247001,-9.4416872196
3.89519905353,-0.586570139392,-5.01355675471,-6.03004646585
4.66665483086,2.88578868912,-3.69168103941,-0.658405712096
6.90811060819,4.88814751763,-2.84980532411,-1.21676495834
8.87956638552,5.72050634614,-1.59792960882,0.184875795412
6.56102216285,1.97286517465,-1.16605389351,-1.77348345084
9.07247794018,-0.984775996836,-1.86417817821,-3.03184269708
8.20393371751,6.15758283167,-0.88230246292,0.289798056674
5.42538949484,8.12994166019,1.10957325238,1.81143881043
6.31684527217,4.9423004887,1.30144896768,2.24307956418
4.0283010495,3.81465931721,0.363324682981,1.70472031794
2.03975682683,4.91701814572,1.14520039828,1.94636107169
3.17121260416,6.28937697423,1.63707611358,4.72800182544
5.81266838149,9.79173580274,2.32895182888,5.2096425792
3.92412415882,8.81409463125,3.04082754418,4.09128333295
1.51557993615,6.43645345976,1.14270325948,1.82292408671
-0.492964286521,5.72881228827,-0.355421025222,1.03456484046
-1.67150850919,6.07117111679,0.0864546900775,0.936205594213
-0.88005273186,5.1235299453,-0.621669594624,1.75784634797
2.77140304547,2.40588877381,-0.919793879326,-0.100512898278
4.3428588228,0.698247602319,-1.63791816402,0.201127855475
2.29431460013,-0.169393569169,-0.786042448723,1.02276860923
0.625770377461,1.88296525934,-1.03416673343,-1.69559063702
2.41722615479,2.26532408785,-2.71229101813,-2.97394988326
0.948681932121,0.627682916365,-1.66041530283,2.94769087049
-0.91986229055,0.100041744878,-0.098539587525,0.429331624246
-2.23840651322,1.87240057339,2.45333612777,3.870972378
-2.71695073589,4.1147594019,2.42521184307,4.95261313175
-3.15549495856,1.15711823041,1.08708755837,0.0142538855071
-4.60403918123,-1.09052294108,-0.681036726328,0.76589463926
-8.3725834039,-2.32816411257,-1.43916101103,-3.13246460699
-7.41112762657,-5.60580528406,-2.38728529573,-3.16082385323
-1.85967184924,-11.0334464555,-4.77540958043,-6.42918309948
-5.58821607191,-9.10108762704,-2.20353386513,-5.72754234572
-8.90676029458,-8.39872879852,-1.22165814983,-3.09590159197
-6.88530451725,-8.85636997001,-0.639782434533,-5.73426083822
-6.81384873992,-5.5840111415,1.52209328077,-3.02262008446
-4.66239296259,-4.45165231299,1.74396899607,-0.340979330707
-4.63093718526,-4.59929348448,0.405844711364,-0.509338576954
-6.81948140793,-2.57693465597,1.00772042667,0.642302176801
-9.9580256306,-5.92457582746,-0.000403858033678,-0.346057069446
-5.57656985327,-2.76221699895,1.00147185726,-0.794416315694
-7.51511407594,0.220141829566,4.02334757256,-0.762775561938
-5.76365829861,4.05250065808,5.58522328786,2.96886519182
-1.86220252128,4.89485948659,5.35709900316,5.62050594557
-0.0507467439493,2.3772183151,6.02897471846,5.77214669932
0.630709033383,-0.780422856391,5.26085043376,5.85378745308
0.452164810715,3.89193597212,5.13272614906,7.00542820683
0.0336205880412,7.37429480063,8.17460186436,10.0370689606
-3.35492363463,9.50665362915,9.33647757966,11.2187097143
-1.2034678573,4.36901245765,7.38835329496,9.40035046809
-0.742012079969,3.08137128617,6.27022901026,10.2619912218
-0.450556302636,7.00373011468,7.69210472556,18.5736319756
1.52089947469,3.08608894319,4.38398044086,15.9252727294
2.45235525202,4.6984477717,2.39585615616,8.13691348311
2.03381102935,4.83080660021,2.86773187145,4.95855423686
-0.284733193319,-4.81683457128,2.01960758675,1.49019499062
-0.953277415985,-7.18447574276,1.27148330205,-2.04816425563
-0.671821638658,-5.63211691426,1.29335901736,0.333476498123
-2.32036586133,-7.60975808574,2.65523473265,-2.02488274812
-8.328910084,-7.50739925723,4.19711044795,-5.13324199437
-9.43745430667,-13.7350404287,3.23898616325,-5.65160124062
-5.83599852934,-10.7326816002,2.27086187855,-2.21996048686
-5.60454275201,-8.3903227717,1.87273759385,-0.578319733106
-7.65308697468,-7.91796394319,1.04461330915,-2.18667897935
-7.98163119735,-4.92560511468,2.02648902445,2.6549617744
-4.64017542002,-4.29324628617,4.12836473975,3.76660252816
-5.52871964269,-6.61088745766,3.99024045505,3.06824328191
-8.49726386536,-8.31852862914,2.38211617035,1.15988403566
-7.77580808803,-7.34616980064,2.49399188565,1.62152478942
-2.3343523107,-6.82381097212,1.17586760094,4.56316554317
-2.95289653337,-1.58145214361,1.52774331624,5.56480629692
-2.26144075604,0.930906684902,2.26961903155,6.69644705068
0.0700150212942,-1.38673448659,1.66149474685,5.09808780443
0.511470798625,-5.48437565808,0.923370462144,1.73972855819
-2.94707342405,-8.90201682957,0.0752461774428,1.78136931194
-5.26561764672,-9.21965800105,-0.862878107255,-0.196989934306
-6.38416186939,-13.7772991725,-1.03100239196,-6.01534918055
-8.02270609206,-12.354940344,-0.689126676658,-9.1937084268
-4.94125031473,-8.59258151552,-0.64725096136,-3.90206767304
1.3702054626,-13.320222687,-2.39537524606,-3.53042691929
-0.448338760067,-7.0078638585,-1.29349953076,-0.878786165535
-2.45688298274,-2.83550502999,-1.83162381546,-0.417145411782
-1.24542720541,5.79685379853,-0.35974810016,4.80449534197
-0.293971428076,-0.200787372967,-0.0278723848605,5.37613609573
1.27748434926,-2.37842854445,-2.39599666956,5.10777684948
-0.641059873415,-5.07606971595,-2.71412095426,2.32941760323
-5.45960409609,-10.4737108874,-2.64224523896,-1.83894164301
-4.87814831876,-9.53135205892,-3.67036952366,-2.82730088926
-3.36669254143,-3.16899323041,-1.97849380836,-2.4556601355
-0.525236764097,2.0033655981,-0.0966180930627,-1.52401938175
1.76621901324,0.425724426615,0.185257622237,-2.652378628
3.24767479057,-0.991916744875,-0.552866662467,-3.04073787424
2.30913056789,-1.31955791636,-1.22099094717,-2.19909712049
-0.00941365477775,-0.817199087855,-0.889115231865,1.73254363326
1.41204212255,-1.72484025934,-0.597239516566,-1.60581561298
6.38349789989,-0.412481430831,-0.355363801267,-3.67417485923
4.75495367722,2.47987739768,-0.28348808597,-0.482534105473
2.61640945454,2.04223622619,-1.56161237067,-0.490893351718
1.67786523187,1.0245950547,-2.09973665537,-1.31925259796
3.8793210092,-0.193046116787,-1.38786094007,-1.99761184421
6.10077678653,-2.78068728828,-1.02598522477,-4.26597109046
3.98223256387,-0.978328459765,-2.41410950947,-0.824330336702
-2.1563116588,-1.62596963126,-0.132233794175,-4.95268958295
-5.59485588148,-0.983610802741,1.62964192113,-8.37104882919
-4.78340010414,-4.97125197423,-3.17848236357,-10.5994080754
-6.69194432682,-12.1588931457,-0.786606648271,-12.7677673217
-11.1404885495,-10.8365343172,-0.344730932975,-15.0161265679
-7.97903277215,-5.5041754887,-4.54285521767,-13.4344858142
-1.97757699483,-0.491816660186,-6.02097950237,-8.70284506043
1.8938787825,2.00054216833,-2.91910378707,-3.99120430667
1.00533455984,3.89290099683,-3.74722807178,0.250436447082
-1.31320966284,4.30525982535,-6.06535235648,-1.18792279916
0.768246114498,5.00761865386,-4.39347664118,-3.92628204541
6.63970189183,6.97997748237,-1.42160092588,0.0653587083452
8.34115766915,8.38233631088,0.740274789419,-0.833000537903
9.11261344648,12.0346951394,0.99215050472,1.30864021585
10.1440692238,14.1670539679,-0.485973779978,3.78028096961
10.2355250011,17.3694127964,-1.09409806468,4.08192172336
11.1569807785,19.5917716249,-0.312222349381,7.90356247711
14.3184365558,19.3641304534,-0.180346634083,8.18520323087
17.2298923331,20.1564892819,0.761529081221,8.44684398462
15.8513481105,19.7588481105,0.283404796515,9.53848473838
65.4482521802,74.5316351744,6.48477107558,66.2992114826
62.7828429432,70.4155759591,6.92579092085,65.1907199631
58.6374337061,68.1295167437,10.1768107661,65.4022284437
52.622024469,63.5534575284,8.61783061138,55.3837369243
49.7666152319,60.797398313,6.48885045664,53.6652454049
50.9012059948,56.5113390977,5.22987030191,53.5867538855
51.4057967577,55.7252798823,4.37089014718,55.9682623661
45.5003875206,50.849220667,7.57190999245,51.6197708467
44.3949782835,46.8031614517,6.91292983771,45.8412793273
41.7695690464,43.8271022363,4.83394968298,43.8827878079
37.4941598093,40.721043021,4.63496952824,40.5442962885
36.2787505723,38.2149838056,2.43598937351,38.045804769
36.0033413352,35.9189245903,2.24700921878,32.4773132496
36.5479320981,35.2628653749,3.64802906405,32.5688217302
32.322522861,32.8568061596,2.53904890931,32.2903302108
28.6871136239,28.7407469442,0.940068754579,28.5718386914
24.9717043868,25.1646877289,0.261088599844,23.903347172
18.0962951497,19.7686285135,0.012108445113,19.4948556526
15.8308859126,16.8425692982,0.243128290378,17.9163641332
14.9754766755,16.7365100829,1.39414813565,21.4078726138
14.3200674384,14.2504508675,2.41516798091,18.5793810943
12.1646582013,11.1643916522,1.28618782618,14.3908895749
6.09924896426,4.87833243682,-0.91279232856,7.65239805553
2.53383972717,2.24227322148,-0.991772483289,5.18390653612
2.92843049008,5.57621400613,0.849247361977,10.2254150167
-1.34697874702,6.44015479079,1.00026720724,6.9469234973
3.87761201589,6.80409557544,3.56128705251,5.58843197789
1.8122027788,4.4980363601,5.63230689778,8.12994045848
-14.8532064583,-0.328022855247,0.0533267430437,1.41144893906
-21.5186156954,-4.98408207059,-2.39565341169,-5.66704258034
-18.6640249325,-9.68014128594,1.75536643358,-10.7955340998
-15.8194341696,-16.9462005013,-0.223613721158,-14.8140256192
-19.6648434066,-20.8122597166,-1.84259387589,-19.5625171386
-20.4402526437,-20.408318932,-1.27157403062,-19.191008658
-21.8256618808,-21.3043781473,-1.86055418536,-22.1595001774
-25.8410711179,-23.4004373627,-1.60953434009,-24.3979916968
-25.806480355,-21.886496578,-0.628514494827,-22.6964832162
-27.7618895921,-24.4125557934,-0.81749464956,-23.7149747356
-27.3872988292,-24.9086150087,-2.05647480429,-25.153466255
-25.4227080663,-23.004674224,-0.845454959024,-22.4419577744
-23.0181173034,-25.8007334394,-2.32443511376,-21.2004492939
-29.4035265405,-30.8767926547,-3.29341526849,-26.7989408133
-35.4889357776,-36.7328518701,-3.95239542323,-34.6374323327
-32.7643450146,-40.7789110854,-6.49137557796,-40.0759238521
-29.9197542517,-39.1749703008,-4.94035573269,-39.9744153715
-30.3051634888,-35.4810295161,-3.06933588743,-35.2029068909
-27.3405727259,-35.8870887315,-3.05831604216,-36.2013984103
-25.715981963,-37.0531479468,-3.53729619689,-37.1098899297
-29.3913912001,-36.4092071622,-4.64627635162,-37.2383814491
-32.5268004372,-35.3752663775,-4.36525650636,-38.4568729686
-34.3722096743,-31.4213255928,-2.20423666109,-32.855364488
-30.1576189114,-35.6673848082,-3.04321681583,-30.9038560074
-33.3630281485,-36.6034440235,-2.80219697056,-37.5523475268
-33.8584373855,-36.7395032389,-4.31117712529,-37.8708390462
-31.0338466226,-39.4455624542,-5.11015728003,-37.6193305656
-29.5692558597,-38.3816216696,-5.04913743476,-40.757822085
-27.5346650968,-34.3576808849,-5.12811758949,-34.8263136044
-26.1600743339,-34.9637401003,-4.84709774423,-33.6548051238
-28.365483571,-34.1297993156,-2.21607789896,-32.8832966432
-28.3908928081,-32.075858531,-2.65505805369,-32.0517881627
-30.8763020452,-33.2819177463,-4.38403820843,-35.1902796821
-30.5317112823,-33.3079769616,-4.62301836316,-31.9187712015
-30.3371205194,-34.984036177,-5.46199851789,-31.0772627209
-27.5125297565,-38.5900953923,-5.98097867263,-36.7457542403
-27.9379389935,-36.3961546077,-5.58995882736,-36.2242457597
-26.5633482306,-31.552213823,-4.43893898209,-32.0327372791
-25.2287574677,-31.1882730384,-3.59791913683,-32.9612287985
-25.6641667048,-30.9443322537,-3.67689929156,-31.8497203179
-25.7895759419,-29.8703914691,-2.5258794463,-28.3382118373
-24.784985179,-31.7564506844,-2.26485960103,-31.4967033568
-25.4203944161,-31.0825098997,-2.41383975576,-31.4851948762
-25.1158036532,-28.9785691151,-1.3728199105,-29.2836863956
-27.9212128903,-28.4046283304,-1.33180006523,-27.602177915
-25.1366221274,-26.8606875458,-1.21078021996,-25.9106694344
-21.6820313644,-24.7167467611,0.010239625306,-25.0791609538
-21.0574406015,-23.9128059765,-0.808740529428,-21.4876524732
-22.2328498386,-27.7388651918,-3.29772068416,-25.8861439926
-25.9282590757,-31.0449244072,-3.8267008389,-27.104635512
-25.0836683128,-30.0409836225,-5.68568099363,-27.4931270315
-23.0790775499,-24.3170428379,-4.19466114836,-24.2616185509
-21.664486787,-20.0731020532,-2.0836413031,-18.9601100703
-16.8398960241,-20.1891612685,-2.76262145783,-20.6886015897
-11.2653052612,-20.7052204839,-1.19160161257,-15.6070931091
-8.48071449826,-18.6912796992,-1.1105817673,-10.7955846285
-10.4561237354,-16.6573389146,-1.42956192203,-12.7940761479
-10.4615329724,-15.0233981299,-0.858542076763,-13.5225676673
-12.9269422095,-15.9894573453,-2.4775222315,-15.7210591867
-13.6723514466,-16.7955165606,-2.78650238623,-16.2295507061
-13.0577606837,-17.931575776,-4.40548254097,-15.0980422256
-8.1931699208,-15.1176349913,-2.73446269569,-13.636533745
-2.58857915789,-9.82369420666,-1.18344285043,-8.99502526437
-0.903988394988,-9.059753422,-2.46242300516,-8.27351678379
-3.03939763207,-8.30581263735,-1.6314031599,-8.2420083032
-2.48480686917,-4.82187185269,-0.0703833146326,-7.38049982261
-0.480216106258,-1.06793106804,1.53063653064,-1.95899134201
1.50437465666,-0.0639902833827,2.3616563759,-0.137482861428
-0.161034580437,2.72995050127,2.17267622117,1.25402561916
0.833556182472,1.34389128593,-1.38630393357,1.44553409975
1.33814694538,0.337832070581,-3.0252840883,-1.27295741966
3.68273770829,0.471772855235,-3.26426424303,-0.861448939069
10.1073284712,1.81571363989,-2.33324439776,0.130059541521
10.4319192341,2.79965442454,-1.9622245525,5.26156802211
7.54650999702,1.9235952092,-1.91120470723,4.9130765027
7.22110075993,4.15753599385,0.179815138032,6.31458498329
8.57569152284,8.78147677851,1.1808349833,9.20609346388
10.2402822857,9.07541756317,-0.238145171432,7.69760194447
11.5048730487,10.2593583478,-0.677125326165,11.1891104251
12.5294638116,12.8732991325,0.613894519101,13.2606189056
13.2140545745,15.4172399171,0.804914364366,13.9621273862
13.7886453374,17.6111807018,0.295934209633,15.0636358668
18.4232361003,22.4751214864,-0.7130459451,19.2751443474
18.9778268632,24.7190622711,-1.55202609983,24.186652828
20.4224176261,26.8330030557,-0.441006254568,27.9081613086
20.527008389,29.2069438404,1.5800135907,25.2096697892
20.7615991519,32.7608846251,4.41103343596,27.6811782698
20.7961899148,37.4748254097,7.48205328123,32.3426867504
24.1207806777,36.2887661944,7.1130731265,33.134195231
22.5953714407,34.852706979,6.12409297176,30.9057037115
24.7999622036,37.6666477637,4.25511281703,33.9572121921
31.2245529665,38.2305885483,1.9861326623,37.8287206727
30.5891437294,41.064529333,3.04715250757,40.2802291533
28.5237344923,42.8284701176,6.90817235283,40.1317376339
31.7383252552,43.7924109023,9.1091921981,40.6132461145
41.1429160181,45.7763516869,9.30021204336,43.2647545951
45.447506781,50.4302924716,8.26123188863,49.6362630757
48.5220975439,56.0542332563,8.1422517339,57.3577715563
54.0966883068,54.7581740409,6.83327157917,57.6592800369
56.1912790698,56.6821148256,7.65429142443,58.8307885174
-7.63446584301,-15.5356322674,8.52816860465,-5.51198037791
-8.37106505217,-20.0111451943,8.23797598882,-10.3184206475
-11.4676642613,-21.4066581212,7.29778337301,-9.18486091718
-14.3342634705,-19.9321710481,6.50759075718,-9.88130118682
-16.2508626797,-19.157683975,5.56739814136,-12.0577414565
-16.4674618888,-16.0431969019,6.32720552554,-11.1041817261
-13.244061098,-11.0387098288,4.82701290972,-6.05062199574
-13.4006603072,-6.75422275567,3.4768202939,-3.19706226538
-9.34725951633,-3.69973568256,4.21662767808,-0.45350253502
-9.61385872549,-5.31524860945,5.84643506226,-0.45994280466
-12.4504579347,-7.11076153634,4.38624244644,-2.8563830743
-11.3270571438,-6.48627446323,3.66604983062,0.0871766560613
-8.69365635299,-8.28178739012,2.05585721479,-1.14926361358
-5.80025556215,-7.39730031701,3.03566459897,1.01429611678
-4.59685477132,-3.2928132439,5.87547198315,4.91785584714
-1.41345398048,-2.0083261708,5.18527936733,6.7914155775
-1.52005318965,0.626160902313,5.24508675151,9.17497530786
-3.57665239881,3.50064797542,6.36489413569,10.3385350382
-3.64325160798,1.48513504853,4.45470151987,5.10209476859
-0.419850817143,0.689622121641,2.24450890404,4.75565449895
-2.31645002631,1.18410919475,4.05431628822,2.47921422931
-3.20304923547,-2.49140373214,3.1941236724,1.42277395967
-4.11964844464,-5.67691665903,0.583931056583,-0.62366630997
-6.1962476538,-6.33242958592,0.373738440758,-2.88010657961
-7.24284686297,-8.05794251281,-0.896454175065,-4.22654684925
-7.93944607213,-7.5734554397,0.663353209118,-2.11298711889
-5.1560452813,-6.25896836659,-0.436839406702,2.53057261147
0.477355509534,-6.42448129348,-2.60703202253,4.02413234183
10.2007563004,-0.369994220378,-2.58722463835,1.82769207219
16.2641570912,2.36449285273,-0.957417254169,10.7612518026
4.39755788204,0.148979925842,-2.56760986999,6.86481153292
-6.81904132712,6.02346699895,-2.92780248581,2.85837126328
-3.46564053629,6.41795407206,-2.10799510163,3.72193099364
2.99776025454,3.35244114517,-4.07818771745,-1.594509276
7.81116104538,3.36692821828,-4.23838033327,-0.11094954564
10.5145618362,1.63141529139,-5.4685729491,-1.29738981528
8.16796262705,4.7159023645,-3.36876556492,0.0161699150794
5.78136341788,7.43038943761,-2.58895818074,1.52972964544
5.33476420872,8.34487651072,-3.94915079656,3.0032893758
2.52816499956,5.96936358383,-3.68934341238,2.36684910616
0.00156579038958,6.47385065693,-3.8895360282,1.04040883652
0.00496658122574,4.98833773004,-3.95972864402,-3.72603143312
2.46836737206,7.17282480315,-3.53992125985,-0.642471702755
5.02176816289,8.34731187626,-1.58011387567,0.981088027605
9.73516895373,8.25179894937,-0.730306491485,3.19464775797
9.78856974456,8.55628602248,-1.11049910731,2.22820748833
9.9019705354,8.89077309559,-2.08069172313,-0.108232781311
11.2253713262,8.7052601687,-2.53088433895,-1.67467305095
7.95877211707,7.77974724181,-2.42107695477,-0.74111332059
4.50217290791,6.11423431492,-4.70126957059,-0.127553590228
5.24557369874,4.09872138803,-5.42146218641,-2.67399385987
4.75897448957,1.00320846114,-5.48165480224,-7.22043412951
1.71237528041,3.18769553424,-5.93184741806,-3.91687439915
2.68577607124,2.62218260735,-4.46204003388,-5.10331466879
3.44917686208,1.49666968046,-4.4022326497,-4.83975493842
1.34257765291,-0.158843246427,-6.63242526552,-6.36619520806
-0.0140215562533,0.59564382668,-6.99261788134,-5.9726354777
2.86937923458,3.51013089979,-5.77281049716,-1.77907574734
7.59278002542,2.8346179729,-5.75300311298,-1.06551601698
7.01618081625,5.53910504601,-4.5031957288,5.69804371338
2.92958160709,5.19359211912,-4.28338834463,-0.31839655626
0.452982397925,2.25807919223,-5.64358096045,-7.1448368259
-1.26361681124,1.94256626534,-7.41377357627,-5.83127709554
2.59978397959,2.91705333845,-6.77396619209,-3.86771736518
5.26318477043,2.97154041156,-6.36415880791,-3.67415763482
6.09658556126,0.826027484665,-5.25435142373,-3.68059790446
5.1999863521,1.98051455777,-5.01454403955,-1.1070381741
7.42338714293,3.69500163088,-5.97473665537,0.466521556265
9.34678793377,8.23948870399,-3.2549292712,3.89008128663
12.4101887246,9.7539757771,-3.20512188702,5.11364101699
11.1435895154,9.67846285021,-3.01531450284,2.08720074735
11.3669903063,9.74294992332,-3.28550711866,2.91076047771
14.0303910971,11.2574369964,-3.99569973448,5.33432020807
13.1637918879,15.3219240695,-1.0258923503,6.98787993843
14.0971926788,12.4064111426,-0.876084966123,3.98143966879
13.6105934696,15.8408982158,0.243722418054,5.52499939915
10.7739942604,16.8853852889,1.44352980224,6.38855912951
10.7173950513,14.039872362,0.573337186415,3.21211885987
8.03079584212,12.0843594351,-0.666855429408,0.675678590234
7.50419663295,10.1988465082,-1.86704804523,2.63923832059
7.03759742379,7.1133335813,-2.85724066105,1.09279805096
7.11099821462,10.0778206544,1.32256672313,3.94635778132
8.33439900546,9.84230772752,1.92237410731,4.83991751168
5.47779979629,8.07679480063,1.38218149148,3.13347724204
3.43120058713,4.46128187374,-0.0480111243378,1.3570369724
3.22460137796,3.81576894685,0.811796259844,1.22059670276
3.13800216879,3.71025601996,1.66160364402,3.94415643312
4.04140295963,7.79474309307,2.6914110282,5.63771616348
7.23480375047,5.86923016618,1.95121841238,1.38127589384
8.1382045413,5.41371723929,1.01102579656,1.7548356242
8.18160533213,2.25820431239,-1.15916681926,1.68839535456
4.49500612297,-1.4573086145,-3.82935943508,-3.41804491508
2.50840691381,-3.39282154139,-6.61955205091,-3.69448518471
4.24180770464,-1.40833446828,-6.55974466673,-1.33092545435
2.04520849548,4.39615260483,-2.64993728255,4.21263427601
1.40860928631,6.56063967794,0.83987010163,4.00619400637
-0.337989922853,5.05512675105,1.52967748581,0.419753736729
2.10541086798,5.91961382416,1.92948486999,4.37331346709
4.92881165882,5.77410089727,1.00929225417,6.44687319745
4.57221244965,4.93858797038,1.46909963835,8.30043292781
3.09561324049,3.82307504349,1.64890702253,4.13399265817
1.04901403132,3.1675621166,0.888714406705,2.71755238853
-1.07758517785,3.89204918971,2.28852179088,5.46111211889
0.825815612989,5.27653626281,3.58832917506,8.56467184926
-0.290783596174,3.70102333592,3.69813655924,6.07823157962
-2.33738280534,4.49551040903,4.49794394342,6.34179130998
-4.9739820145,2.00999748214,3.3077513276,4.90535104034
-5.98058122367,0.28448455525,2.09755871178,2.4389107707
-5.05718043283,1.38897162836,5.22736609596,5.43247050106
-6.733779642,1.05345870147,6.58717348013,6.87603023142
-8.83037885117,-0.882054225422,5.80698086431,5.21958996178
-8.48697806033,-2.58756715231,4.18678824849,1.52314969214
-9.13357726949,-0.643080079204,3.13659563267,5.4067094225
-8.71017647866,-4.78859300609,2.19640301685,2.68026915286
-10.8467756878,-8.70410593298,2.19621040103,-2.93617111678
-11.563374897,-10.2596188599,2.50601778521,-2.41261138642
-6.05997410616,-12.8551317868,1.29582516939,-3.99905165606
-5.05657331532,-11.3006447137,1.55563255356,-4.3154919257
-5.45317252449,-10.8161576405,1.87543993774,-5.71193219533
-4.86977173365,-11.9816705674,1.24524732192,-5.31837246497
-6.42637094282,-13.9571834943,0.455054706101,-4.64481273461
-6.74297015198,-16.8926964212,-0.685137909721,-5.17125300425
-10.0195693611,-16.8782093481,1.50466947446,-6.55769327389
-15.1861685703,-18.023722275,3.15447685864,-10.2741335435
-14.4127677795,-21.3592352019,2.97428424282,-14.4605738132
-15.9093669886,-21.5447481288,5.22409162699,-13.7270140828
-16.6659661978,-24.1202610557,3.95389901117,-14.6934543524
-22.072565407,-24.1557739826,5.58370639535,-14.1598946221
-36.4284120639,-42.4094331395,-8.9076526163,-31.3799963663
-34.9235108897,-42.0685906885,-9.70571984872,-32.1721260987
-30.6486097155,-41.6177482375,-8.97378708114,-32.7442558311
-33.8437085412,-37.8369057865,-7.78185431355,-27.6663855635
-33.258807367,-34.8860633355,-7.85992154598,-23.098515296
-28.4439061928,-33.2052208844,-6.4379887784,-24.5206450284
-25.3090050185,-29.5143784334,-4.86605601082,-22.1827747608
-24.2341038443,-26.8035359824,-5.49412324324,-21.8149044932
-24.9192026701,-26.1326935314,-4.77219047566,-23.4570342257
-26.4343014958,-23.3518510804,-1.70025770808,-22.7091639581
-22.2894003216,-21.8010086294,-1.7983249405,-20.4712936905
-22.3144991473,-23.7501661783,-4.44639217292,-23.8334234229
-21.7695979731,-17.5993237273,-2.69445940534,-19.0455531553
-15.4546967989,-14.6384812763,-2.97252663776,-12.8576828878
-13.1297956246,-10.9076388253,-1.24059387018,-8.13981262017
-11.3548944504,-8.62679637428,-0.108661102608,-7.0819423526
-6.47999327617,-11.0759539233,-2.64672833502,-8.00407208502
-5.95509210194,-9.95511147225,-2.47479556745,-4.30620181744
-7.5001909277,-4.97426902123,-1.12286279987,-4.45833154986
-7.49528975346,-4.90342657022,-2.03093003229,-5.81046128228
-4.49038857923,-8.8925841192,-3.85899726471,-7.9925910147
-2.985487405,-7.77174166819,-3.61706449713,-7.89472074712
1.25941376924,-8.26089921717,-4.03513172955,-8.03685047954
0.574314943475,-6.83005676615,-2.70319896197,-5.02898021196
0.429216117707,-4.47921431514,-1.17126619439,-3.08110994438
2.57411729194,-1.27837186412,0.740666573191,0.886760323196
2.95901846618,1.81247058689,2.65259934077,5.27463059077
4.39391964041,3.11331303791,4.38453210835,8.43250085835
8.66882081465,-1.95584451107,1.80646487592,5.67037112593
8.52372198888,0.434997939945,0.0883976435034,4.29824139351
11.0086231631,2.96584039096,1.00033041109,0.666111661092
9.36352433735,4.46668284198,3.40226317866,3.31398192867
6.12842551159,6.68752529299,4.17419594625,4.57185219625
3.87332668583,11.738367744,5.92612871383,6.85972246383
5.66822786006,12.769210195,4.5280614814,5.68759273141
10.7931290343,10.720052646,2.34999424898,9.16546299899
8.37803020853,12.7308950971,3.25192701656,9.50333326657
7.82293138277,14.9717375481,1.59385978414,9.69120353415
12.527832557,12.4925799991,1.53579255172,11.8490738017
11.5227337312,15.7134224501,3.6277253193,14.5669440693
11.4376349055,18.5842649011,3.96965808688,19.1748143369
14.2225360797,19.2751073521,2.71159085446,17.3526846045
18.1774372539,16.1259498032,1.31352362204,14.500554872
18.2323384282,13.6967922542,2.10545638961,11.2284251396
19.7372396024,12.5376347052,2.2273891572,11.1862954072
17.7321407767,12.6484771562,1.69932192478,9.63416567478
18.3370419509,12.1393196072,2.09125469236,8.82203594236
16.4619431251,12.8801620582,2.33318745994,9.18990620994
14.5868442994,14.2110045093,2.83512022751,9.75777647752
15.8017454736,11.7918469603,1.45705299509,10.5656467451
15.3666466478,10.2826894113,-0.591014237325,9.14351701268
9.67154782206,12.0935318623,-0.869081469747,7.72138728026
9.8064489963,14.9543743133,1.65285129783,9.89925754784
9.81135017053,14.7152167643,3.26478406541,9.55712781541
8.52625134477,18.5660592153,3.74671683299,11.844998083
13.691152519,20.0669016664,3.86864960057,13.0128683506
13.8960536932,23.2177441174,5.36058236815,15.1507386182
14.8409548675,22.0385865684,4.38251513573,16.9286088857
15.9658560417,21.3094290194,3.57444790331,18.1364791533
16.5307572159,24.7502714704,4.42638067089,19.9343494209
12.3556583902,24.5811139214,7.09831343847,18.2022196885
8.38055956442,24.3619563725,8.21024620605,14.440089956
12.9254607387,25.8127988235,7.64217897362,15.2479602236
18.6503619129,24.1436412745,6.4641117412,17.5658304912
18.1852630871,23.8544837255,5.87604450879,20.4537007588
17.2301642614,26.1153261765,6.35797727637,20.2415710264
21.1750654356,25.8261686275,4.81991004394,20.1794412939
26.5399666098,23.5570110786,2.89184281152,18.8273115615
27.5948677841,23.3278535296,3.7937755791,21.0951818291
25.0497689583,22.5986959806,3.58570834668,20.6830520967
21.3446701325,22.0895384316,3.03764111426,20.6009223643
19.4795713068,21.6403808826,3.89957388184,21.0587926318
19.454472481,19.9312233336,3.32150664942,18.7866628994
18.8793736552,19.3320657847,3.833439417,17.654533167
16.6542748295,16.6529082357,2.56537218458,14.8024034346
16.3191760037,12.7637506867,2.84730495216,12.7102737022
14.9640771779,12.6145931377,4.84923771974,11.0881439697
13.1589783522,12.8354355887,3.56117048732,9.06601423732
12.4938795264,15.4762780397,3.6831032549,8.7638845049
12.6087807006,15.6671204908,3.09503602247,10.8517547725
11.2736818749,10.8779629418,0.826968790054,6.81962504005
6.94858304911,7.73880539279,-1.15109844237,3.51749530763
0.53348422335,4.1196478438,-0.98916567479,1.62536557521
-0.911614602413,3.81049029481,-0.147232907209,2.82323584279
-0.436713428178,6.16133274583,0.984699860372,5.44110611037
2.85818774606,8.06217519685,1.21663262795,6.56897637795
4.71308892029,9.98301764786,1.11856539553,7.65684664553
5.47799009453,10.4338600989,-0.00950183689201,7.53471691311
8.43289126876,12.4347025499,-0.627569069311,7.78258718069
3.187792443,18.3755450009,0.564363698268,8.29045744827
0.582693617234,9.30638745193,0.776296465847,6.66832771585
0.91759479147,3.81722990294,1.03822923343,8.26619798343
0.362495965703,5.22807235396,0.650162001006,8.29406825101
0.25739713994,3.01891480498,-0.837905231412,1.42193851858
-1.92770168583,-1.27024274401,-1.11597246383,-5.59019121384
-6.30280051159,0.0505997070104,-1.69403969626,-4.21232094626
-9.42789933736,0.321442158027,-1.81210692868,-1.70445067868
-5.86299816312,-0.987715390958,-2.0501741611,-1.6465804111
-4.02809698888,-2.43687293994,-0.808241393515,-2.12871014352
-5.25319581465,0.533969511078,0.573691374062,1.33916012406
0.541705359585,0.0648119620892,-1.00437585836,0.727030391639
-0.103393466179,-1.46434558689,-2.27244309078,3.10490065922
-2.21849229194,-2.40350313588,-1.6605103232,1.6127709268
-4.22359111771,-2.93266068486,-1.39857755562,-0.609358805623
-1.35868994347,-6.80181823384,-2.97664478804,-2.50148853804
-4.41378876924,-6.88097578283,-3.11471202046,-5.59361827046
-3.97888759501,-4.09013333181,-2.21277925288,-2.23574800288
-0.49398642077,-5.33929088079,-2.8308464853,-2.46787773531
-0.639085246537,-1.46844842978,-1.47891371772,-4.43000746773
-3.2041840723,-6.01760597876,-0.766980950146,-8.11213720015
-5.92928289807,-8.40676352775,-2.77504818257,-7.42426693257
-11.3143817238,-10.5759210767,-1.44311541498,-10.746396665
-9.64948054959,-16.4650786257,-1.85118264741,-11.7185263974
-7.54457937536,-16.5142361747,-3.69924987982,-10.0606561298
-9.12967820112,-15.0733937237,-3.08731711225,-13.7327858623
-8.00477702689,-14.3325512727,-2.60538434467,-12.3449155947
-9.42987585265,-17.6817088216,-4.40345157709,-13.4770453271
-14.9049746784,-23.9408663706,-3.74151880951,-16.3691750595
-13.8000735042,-27.5800239196,-4.08958604193,-21.7013047919
-16.2551723299,-23.1291814686,-1.43765327435,-19.4834345244
-18.9302711557,-21.4283390176,-0.985720506771,-17.8855642568
-19.8353699815,-24.1474965666,-2.22378773919,-18.0976939892
-22.7804688072,-27.0566541156,-2.30185497161,-21.1298237216
-24.725567633,-29.2158116645,-2.17992220404,-22.521953454
-25.7706664588,-31.3349692135,-3.81798943645,-24.0540831865
-28.8457652845,-30.7941267625,-4.72605666887,-26.8462129189
-32.9808641103,-37.2932843115,-5.14412390129,-27.6383426513
-34.5559629361,-41.4324418605,-6.91219113371,-30.7404723837
-8.28728429057,-20.3901507999,-8.92842643589,-14.0108536585
-4.92322378575,-19.5147171669,-8.63076730599,-16.8388844462
-3.29916328091,-8.64928353389,-3.4331081761,-8.86691523391
