-14.0021184593,-25.8526853198,-7.41737281977,-10.0483866279
-12.3961340643,-23.5461777261,-6.91071635804,-10.2943889054
-15.7901496692,-22.7496701325,-7.77405989631,-9.72039118294
-12.3841652742,-26.5831625389,-8.44740343459,-12.4863934605
-7.07818087919,-18.7266549453,-4.99074697286,-4.03239573796
-9.33219648416,-15.2501473517,-5.55409051113,-2.54839801548
-0.796212089132,-12.143639758,-7.7174340494,-4.15440029299
-2.6002276941,-17.1571321644,-7.43077758767,-4.5004025705
-5.63424329908,-15.4506245708,-5.87412112594,-4.49640484802
-5.64825890405,-13.1641169772,-5.96746466421,-2.36240712553
-6.79227450902,-7.38760938358,-3.87080820248,-1.97840940304
-4.95629011399,-5.56110178996,-2.49415174076,0.695588319442
-3.67030571896,-1.68459419634,-0.737495279027,2.17958604193
-0.964321323936,-4.35808660272,-0.430838817299,1.64358376442
-2.09833692891,-6.0015790091,-2.14418235557,-0.312418513096
-3.66235253388,-10.3550714155,-3.28752589384,-5.55842079061
-6.24636813885,-10.6085638219,-3.87086943211,-6.17442306812
-4.25038374382,-8.37205622825,-3.59421297038,-3.31042534564
-4.69439934879,-5.45554863463,-2.50755650866,-1.71642762315
-0.888414953766,0.370958958989,-1.01090004693,4.08757009934
-0.462430558739,1.11746655261,0.315756414802,5.86156782182
-2.11644616371,2.15397414623,-0.647587123469,5.61556554431
2.95953823132,1.38048173984,-2.18093066174,6.2295632668
3.05552262635,3.24698933346,-3.57427420001,7.96356098928
8.20150702137,3.36349692708,-3.06761773828,9.03755871177
4.3374914164,0.310004520699,-3.94096127655,5.58155643426
8.50347581143,1.97651211432,-2.85430481483,6.90555415674
5.01946020646,5.14301970794,-1.6976483531,6.15955187923
4.46544460149,2.86952730155,-0.570991891369,5.91354960172
1.85142899652,3.03603489517,0.20566457036,5.7275473242
0.0674133915454,1.41254248879,0.172321032089,-0.388454953309
5.19339778657,6.38905008241,1.88897749382,0.575542769178
17.6693821816,12.625557676,3.31563395555,11.1295404917
17.8953665766,11.2520652696,1.49229041727,15.3635382142
8.65135097166,9.58857286326,2.608946879,12.6875359366
7.31733536669,10.6250804569,6.26560334073,10.4415336591
10.7133197617,14.1615880505,6.12225980246,7.43553138161
3.24930415674,4.82809564412,3.40891626419,-0.0904708959015
6.81528855177,3.25460323774,1.94557272592,0.673526826586
10.1212729468,8.43111083136,3.24222918765,4.03752454907
16.3372573418,12.687618425,3.65888564937,7.37152227156
11.9832417369,9.09412601859,1.5055421111,4.56551999405
13.4892261319,12.5906336122,3.21219857283,10.0695177165
9.87521052691,14.2571412058,3.80885503456,8.24351543902
7.64119492194,12.4736487994,3.89551149629,4.65751316151
1.54717931697,10.9201563931,5.18216795802,1.73151088399
2.713163712,11.3066639867,3.60882441975,0.55550860648
3.38914810702,4.9231715803,3.24548088148,-2.18049367103
7.05513250206,13.7896791739,5.7621373432,4.39350405145
1.13111689708,13.7561867675,5.59879380493,7.34750177394
2.63710129211,15.5326943612,7.44545026666,7.76149949643
7.13308568714,19.5892019548,8.60210672839,8.30549721891
14.8690700822,22.2757095484,7.76876319012,10.1894949414
11.3950544772,19.532217142,7.08541965185,11.1334926639
5.52103887222,17.2687247356,6.99207611358,10.6074903864
5.87702326725,17.2952323292,6.78873257531,9.25148810886
6.13300766228,18.0217399229,6.41538903703,7.04548583135
12.0989920573,15.3482475165,5.07204549876,6.58948355383
11.3249764523,10.4647551101,5.57870196049,4.24348127632
1.83096084736,7.63126270372,3.60535842222,1.70747899881
1.38694524239,10.7077702973,1.58201488395,1.49147672129
9.01292963742,8.97427789096,0.478671345676,0.315474443782
3.84891403245,7.17078548457,-0.104672192596,-0.800527833731
-4.97510157252,3.87729307819,0.491984269134,-3.89653011124
0.0208828225077,1.33380067181,0.0386407308633,-5.88253238876
-3.33313278246,1.39030826543,0.785297192593,-9.73853466627
-4.01714838744,0.186815859048,1.78195365432,-12.8845369438
-4.46116399241,0.963323452666,2.84861011605,-8.6905392213
-6.67517959738,0.589831046284,1.77526657778,-8.70654149881
-5.34919520235,-4.0936613601,1.47192303951,-10.3325437763
-7.67321080732,-3.72715376648,2.22857950123,-11.9985460538
-9.98722641229,2.60935382714,1.50523596296,-8.14454833135
-2.45124201727,0.585861420757,1.69189242469,-9.86055060886
-2.47525762224,-2.28763098562,1.72854888642,-11.7065528864
-4.98927322721,-4.601123392,0.0952053481506,-12.6825551639
-7.31328883219,-6.62461579839,-0.268138190122,-16.7685574414
-7.46730443716,-4.96810820477,1.61851827161,-16.3845597189
-10.5213200421,-3.88160061115,2.28517473334,-12.8205619964
-13.6253356471,-5.72509301754,2.52183119506,-16.2765642739
-15.3393512521,-2.96858542391,3.18848765679,-14.4625665515
-9.52336685704,-6.5320778303,1.63514411852,-12.018568829
-11.707382462,-2.45557023668,1.60180058025,-9.01457110648
-6.50139806699,-1.12906264306,2.26845704198,-5.900573384
-5.24541367196,-1.28255504944,3.53511350371,-2.37657566151
-12.5294292769,-0.506047455823,3.71176996544,-5.14257793902
-10.0134448819,0.980460137795,3.76842642716,-2.85858021654
-6.59746048687,0.516967731412,3.55508288889,-5.59458249405
-5.60147609184,1.57347532503,3.80173935062,-5.01058477156
-6.04549169682,0.939982918651,2.19839581235,-3.10658704908
-3.78950730179,-1.57350948773,0.475052274078,-4.88258932659
1.55647709324,-0.627001894114,-1.45829126419,-1.6585916041
-4.84753851173,0.609505699507,-1.89163480246,-2.14459388162
-2.8515541167,-1.17398670688,-1.00497834073,-2.36059615913
-3.94556972167,-2.18747911326,0.151678120994,-6.34659843664
-14.5595853266,-3.14097151964,0.498334582722,-6.18260071416
-8.81360093162,-3.89446392602,0.634991044451,-8.65860299167
-3.91761653659,1.62204366759,0.76164750618,-4.49460526918
-4.94163214156,-2.39144873878,-1.04169603209,-4.78060754669
-0.865647746534,-5.82494114517,-0.125039570363,-4.36660982421
-0.349663351506,-2.68843355155,-0.628383108635,-1.74261210172
3.30632104352,0.55807404207,-0.371726646905,2.51138562077
1.90230543855,-1.79541836431,-1.91507018518,3.50538334325
-1.31171016642,-0.668910770692,-1.47841372345,0.979381065739
0.00427422860957,-2.25240317708,-0.121757261719,1.88337878823
2.76025862364,-4.11589558346,-2.70510079999,1.68737651071
1.84624301866,-3.34938798984,-2.43844433826,-0.868625766801
4.49222741369,-2.82288039622,-1.66178787653,2.06537195569
4.84821180872,-2.1863728026,-2.67513141481,2.73936967817
2.77419620375,0.730134791014,-0.468474953075,7.55336740066
1.75018059878,0.156642384634,-0.261818491348,8.03736512315
8.50616499381,5.19314997825,2.77483797038,11.1713628456
8.80214938883,6.89965757187,6.37149443211,16.8953605681
2.23813378386,2.73616516549,3.02815089384,7.46935829061
0.00411817889108,-2.10732724089,0.204807355567,1.22335601309
-0.879897426083,-10.2108196473,-2.6185361827,-2.72264626442
-0.23391303105,-9.24431205366,-2.11187972098,-2.69864854193
-0.947928636022,-5.07780446004,-1.18522325925,1.00534918055
1.918055759,-5.51129686642,-1.40856679752,4.80934690304
5.14404015403,-5.8647892728,-3.07191033579,8.55334462553
8.30002454906,-6.51828167918,-5.60525387406,6.40734234801
2.62600894409,-7.60177408557,-3.64859741233,4.6313400705
1.80199333912,-4.69526649195,-3.7019409506,4.94533779299
-2.21202226586,-8.07875889833,-6.20528448887,1.51933551548
-1.31603787083,-9.50225130471,-7.01862802715,-0.776666762039
-1.2000534758,-10.3657437111,-7.88197156542,1.93733096045
-0.304069080768,-6.34923611747,-8.60531510369,5.31132868293
7.30191531426,-5.51272852386,-9.29865864196,7.24532640542
1.94789970928,-8.67622093024,-11.3620021802,6.48932412791
21.5266497093,30.2055959302,-2.79900436047,25.4548074128
18.6330865741,31.0443992916,-2.61659262841,26.8803751602
21.9595234389,30.8832026529,-3.55418089636,29.8959429077
24.2759603038,28.5720060142,-3.9517691643,27.6415106551
26.7723971686,26.1408093756,-3.72935743225,26.2470784025
24.3288340334,23.8796127369,-3.65694570019,26.02264615
24.9952708982,26.4384160982,-1.66453396814,26.3082138974
23.441707763,27.4572194596,-0.522122236081,27.0037816448
21.3581446278,25.3960228209,-0.229710504027,22.1493493923
18.4745814926,23.1448261823,1.42270122803,20.0049171397
14.0410183575,17.4836295436,0.435112960082,18.6804848872
13.7874552223,13.5124329049,-1.86247530786,12.3260526346
14.5838920871,12.5212362663,-2.51006357581,11.631620382
7.34032895189,9.34003962759,-1.98765184376,8.96718812946
11.3267658167,6.17884298893,-2.1452401117,4.3427558769
3.12320268152,3.35764635026,-1.58282837965,1.13832362433
3.64963954634,5.4464497116,0.0495833524074,0.443891371771
6.03607641115,5.30525307293,0.851995084462,3.50945911921
3.26251327596,7.59405643427,0.634406816516,4.42502686664
3.58895014078,10.9428597956,1.97681854857,6.63059461408
1.92538700559,5.36166315693,1.41923028063,4.54616236152
1.94182387041,8.33046651827,1.98164201268,5.42173010895
3.58826073522,10.6392698796,1.93405374474,8.16729785639
6.28469760003,6.92807324094,1.19646547679,6.33286560383
8.49113446485,4.72687660228,1.22887720885,2.36843335126
6.16757132966,6.05567996361,2.3012889409,7.7740010987
5.06400819448,6.87448332494,1.00370067295,7.30956884614
3.80044505929,7.60328668628,1.18611240501,4.23513659357
7.1068819241,0.642090047615,-0.491475862937,1.58070434101
3.76331878892,1.59089340895,-0.889064130883,0.126272088445
2.03975565373,1.19969677028,-0.436652398828,-0.168160164119
0.716192518546,-1.42149986839,-0.344240666773,-1.49259241668
5.20262938336,0.137303492953,1.05817106528,0.0729753307533
2.37906624817,-3.05389314572,-0.839417202662,-3.40145692181
1.61550311299,-11.3950897844,-2.06700547061,-7.53588917437
-3.1380600222,-15.696286423,-2.08459373855,-11.2503214269
-5.35162315738,-17.0474830617,-3.2221820065,-14.7847536795
-11.8851862926,-17.1486797004,-0.989770274446,-13.0191859321
-18.1687494278,-15.519876339,-1.04735854239,-15.7036181846
-10.3823125629,-15.8510729777,-1.31494681034,-10.9280504372
-8.26587569813,-16.3022696164,-0.152535078281,-9.99248268975
-10.5894388333,-16.693466255,1.69987665377,-12.0669149423
-9.4830019685,-15.6746628937,0.232288385827,-10.6613471949
-7.76656510369,-17.2258595324,-1.53529988212,-11.3157794474
-8.02012823887,-16.297056171,1.25711184994,-9.51021170001
-7.84369137406,-14.7182528097,1.25952358199,-8.36464395257
-14.1772545092,-15.9094494484,0.0319353140476,-13.7590762051
-14.5008176444,-17.290646087,0.794347046101,-14.2535084577
-13.7643807796,-18.3718427257,0.0167587781561,-14.0979407103
-14.3279439148,-20.1430393644,-0.20082948979,-17.7723729628
-15.59150705,-19.394236003,1.74158224226,-16.9868052154
-14.8550701852,-17.0554326417,2.81399397432,-13.101237468
-11.0486333204,-18.1166292804,3.51640570637,-12.4756697205
-19.5021964555,-20.937825919,1.60881743843,-17.6401019731
-16.1257595907,-16.9490225577,2.17122917048,-11.2945342256
-15.4193227259,-21.6302191963,2.62364090254,-13.8089664782
-18.5528858611,-21.971415835,2.80605263459,-18.2533987308
-14.1564489963,-19.0526124737,1.41846436665,-15.7578309833
-19.3100121315,-20.0038091123,-0.479123901299,-17.3922632359
-20.8535752667,-19.945005751,-0.0767121692425,-20.4966954885
-16.6171384019,-17.9662023897,0.0156995628113,-19.521127741
-18.630701537,-17.9273990283,0.738111294866,-14.6655599936
-16.7442646722,-15.308595667,0.76052302692,-14.3799922462
-17.3778278074,-15.3397923057,0.312934758975,-14.4344244987
-17.5413909426,-13.1809889443,0.87534649103,-13.4888567513
-17.3449540778,-15.932185583,0.737758223084,-16.1332890038
-17.188517213,-18.3333822217,-0.309830044862,-19.3777212564
-10.4520803482,-14.9645788603,-0.237418312807,-17.232153509
-11.6156434833,-11.695775499,0.304993419248,-12.7665857615
-19.4692066185,-14.0969721377,0.707405151301,-15.1210180141
-12.1627697537,-8.31816877632,1.75981688336,-9.19545026666
-6.9863328889,-7.47936541499,2.05222861541,-6.37988251923
-5.69989602409,-6.90056205366,3.32464034747,-5.49431477179
-4.67345915927,-5.88175869232,3.03705207952,-4.32874702435
-6.91702229446,-4.37295533099,1.84946381158,-4.69317927692
-7.59058542964,-8.76415196965,0.601875543631,-10.1676115295
-11.6041485648,-5.55534860831,1.61428727568,-7.33204378205
-5.63771170002,-2.00654524698,2.05669900774,-4.04647603461
-7.7712748352,-2.12774188564,4.36911073979,-6.42090828717
-10.3248379704,-1.64893852431,5.55152247185,-5.97534053974
-9.23840110557,-1.86013516297,4.5739342039,-6.1597727923
-8.93196424076,-1.40133180164,3.00634593596,-4.48420504486
-6.05552737595,-3.75252844031,1.68875766801,-5.64863729743
-9.69909051113,-5.24372507897,0.971169400065,-12.24306955
-6.15265364632,-3.08492171763,-0.00641886787889,-9.27750180255
-4.52621678151,-4.6161183563,0.845992864175,-8.83193405512
-14.5297799167,-6.24731499497,0.958404596231,-14.1063663077
-12.9033430519,-9.16851163363,0.800816328285,-15.2107985602
-8.59690618706,-4.09970827229,0.0932280603392,-9.48523081281
-6.59046932225,-6.28090491096,-1.78436020761,-10.6296630654
-10.2640324574,-6.11210154962,-0.951948475551,-10.2140953179
-11.1375955926,-6.27329818829,-1.6495367435,-8.2885275705
-10.0511587278,-3.89449482696,-0.257125011442,-5.16295982306
-6.504721863,-1.33569146562,-1.44471327939,-3.75739207563
-3.39828499818,-5.29688810429,-1.10230154733,-5.44182432819
-3.07184813336,-5.32808474295,-2.21988981528,-5.01625658075
-5.69541126855,-6.85928138162,-2.14747808322,-5.49068883332
-8.22897440374,-6.29047802028,-0.24506635117,-3.45512108588
-7.34253753893,-3.52167465895,-1.72265461912,-4.30955333844
-4.28610067411,-3.49287129761,-1.59024288706,-6.50398559101
-3.7096638093,-3.63406793628,0.312168844996,-4.89841784357
-2.46322694448,-2.01526457494,1.03458057705,-2.28285009614
2.06320992033,-0.766461213607,1.3869923091,-2.4372823487
-0.0403532148521,3.89234214773,2.34940404116,1.01828539874
-1.16391635004,2.70114550906,1.57181577321,1.98385314617
4.97252051477,3.4899488704,1.77422750527,6.71942089361
1.52895737959,6.49875223173,1.57663923732,6.44498864105
5.0953942444,9.93755559306,2.73905096938,8.70055638848
6.21183110922,10.1963589544,1.13146270143,10.5261241359
8.32826797403,11.2751623157,-0.136125566514,10.4816918834
9.56470483884,7.26396567707,-2.03371383446,7.14725963079
9.20114170366,6.5627690384,-3.02130210241,3.90282737823
13.7775785685,9.26157239974,-2.96889037035,7.07839512566
16.9940154333,7.28037576107,-2.14647863829,8.6139628731
13.7704522981,11.8091791224,-0.91406690624,14.1295306205
14.0068891629,9.54798248375,-2.79165517419,16.705098368
12.5033260277,12.4367858451,-3.38924344213,17.1506661154
18.5597628925,15.9455892064,-2.29683171008,18.4862338628
22.1861997574,17.8543925677,-1.91441997802,20.3618016103
20.7726366222,18.7631959291,-3.20200824597,19.9073693577
16.989073487,17.4819992904,-3.44959651391,19.1929371052
18.5055103518,18.8808026518,-2.79718478186,20.9985048526
18.3619472166,19.3596060131,-1.4147730498,21.2640726
23.2583840814,23.2384093744,-1.59236131775,23.3196403475
23.1148209462,27.6372127358,1.0100504143,24.6152080949
23.9812578111,24.5860160971,-0.0175378536387,24.9907758423
33.6976946759,22.7448194584,-1.51512612159,25.3263435898
25.9741315407,25.6136228198,-0.912714389531,25.0719113372
19.9655850291,11.7700181686,2.80528343023,13.4166860465
19.8998979125,7.79207004784,1.43644530535,10.4358327229
17.2542107959,8.25412192708,2.85760718046,11.6149793994
16.6785236793,8.27617380631,2.09876905558,13.0841260758
13.5028365627,12.6882256855,2.11993093069,15.1732727522
10.4771494461,13.3502775648,4.1710928058,17.0624194287
9.45146232947,10.132329444,2.75225468092,14.2115661051
12.5457752129,11.1643813233,1.61341655603,14.5407127815
14.9900880963,10.0064332025,0.674578431148,12.929859458
9.38440097968,11.0484850817,1.35574030626,12.7790061344
14.3687138631,16.330536961,2.78690218138,16.1481528108
14.6030267465,16.2425888402,2.62806405649,17.1472994873
10.9673396299,9.60464071942,1.3492259316,13.7364461637
12.5516525133,7.54669259865,-0.25961219328,10.9155928401
10.7559653967,1.70874447789,-1.62845031817,4.49473951657
11.6502782801,3.57079635713,-1.07728844305,4.523886193
6.54459116348,1.53284823636,-1.68612656794,0.763032869437
7.10890404688,-3.58509988441,-2.39496469282,-2.30782045413
7.40321693028,1.21695199483,-1.06380281771,-1.2386737777
4.87752981368,3.49900387407,-0.0426409425927,1.21047289874
7.43184269708,-0.0589442467026,-3.48147906748,1.12961957517
7.39615558048,-3.29689236747,-4.18031719236,-2.3612337484
4.43046846388,-4.65484048823,-2.74915531725,-3.20208707197
3.81478134728,-4.212788609,-1.81799344213,-3.38294039553
4.32909423068,-5.42073672976,-1.28683156702,-6.9037937191
1.85340711408,-6.21868485053,-2.27566969191,-6.39464704267
3.75771999748,-5.3966329713,-2.25450781679,-6.56550036624
2.18203288088,-2.31458109206,-0.293345941678,-4.5363536898
6.69634576429,3.61747078717,1.87781593344,-0.877207013369
-3.50934135232,-1.48047733359,-0.211022191448,-6.96806033694
-1.51502846892,0.951574545641,0.0801396836669,-5.7889136605
-2.82071558552,0.423626424876,-0.21869844122,-4.61976698407
-1.09640270211,-3.38432169589,-2.2075365661,-6.32062030764
-7.26208981871,-3.20226981665,-0.916374690989,-8.4514736312
-8.41777693532,-5.77021793742,-1.56521281587,-10.4323269548
-11.9234640519,-6.44816605819,-2.48405094076,-14.5731802783
-9.43915116851,-5.14611417895,-1.93288906565,-11.0740336019
-7.28483828511,-2.82406229971,-0.681727190531,-7.59488692547
-4.46052540171,-0.922010420483,-0.640565315418,-6.15574024904
-0.716212518313,-0.719958541249,-0.179403440303,-5.64659357261
-3.40189963491,-3.60790666201,-0.788241565187,-7.41744689617
-0.867586751512,1.02414521722,0.782920309926,-5.25830021974
-8.03327386811,-4.47380290354,0.644082185039,-10.4291535433
-11.0189609847,-1.43175102431,-0.594755939845,-4.12000686687
-7.39464810131,-3.01969914508,-2.36359406473,-5.58086019044
-4.17033521791,-1.09764726584,-1.60243218961,-0.641713514009
-2.68602233451,1.0044046134,-1.9212703145,-0.792566837576
-5.05170945111,-0.073543507373,-1.25010843939,-4.53342016114
-9.04739656771,-2.15149162814,-0.658946564272,-5.68427348471
-7.25308368431,-4.8094397489,-2.24778468916,-6.71512680828
-12.2787708009,-2.34738786967,-1.82662281404,-6.61598013184
-6.34445791751,-3.77533599043,-0.935460938928,-7.31683345541
-4.60014503411,-7.7532841112,-1.04429906381,-8.70768677898
-3.04583215071,-6.08123223197,-2.6831371887,-6.03854010255
-9.1715192673,-3.12918035273,-1.30197531358,-4.58939342611
-10.6872063839,-1.1371284735,-0.700813438471,-0.550246749679
-5.2228935005,-0.135076594263,-0.789651563357,2.31889992675
-6.6485806171,-3.10302471503,-0.0884896882417,-1.02195339681
-4.83426773371,0.329027164207,1.21267218687,-1.07280672038
-5.62995485031,-2.61892095656,1.65383406199,-4.70366004395
-8.75564196691,-3.46686907733,-0.455004062898,-1.62451336752
-16.8813290835,0.425182801908,-1.81384218778,2.47463330892
-23.8270162001,-0.422765318854,2.53731968733,3.58377998535
-14.9727033167,-3.51071343962,1.85848156245,0.982926661783
-13.7383904333,-7.26866156039,-0.55035656244,1.04207333822
-11.5140775499,-2.85660968115,0.920805312673,1.04122001465
-10.4597646665,-2.70455780192,1.31196718779,-1.69963330892
-9.7654517831,-2.08250592268,1.8231290629,-0.210486632484
-14.1611388997,-3.17045404345,5.62429093802,-1.16133995605
-15.1168260163,-4.77840216421,3.29545281313,-1.63219327962
-10.6625131329,-3.61635028498,1.67661468825,-2.42304660319
-13.1382002495,0.355701594257,1.62777656336,-0.733899926753
-16.3438873661,-1.29224652651,3.12893843847,-0.27475325032
-12.0495744827,-4.71019464728,1.60010031359,-4.82560657389
-16.4652615993,-8.12814276804,0.911262188705,-5.38645989745
-16.7309487159,-8.04609088881,1.21242406382,-3.96731322102
-10.1766358325,-7.95403900957,1.83358593893,-3.21816654459
-10.3323229491,-3.42198713034,3.64474781405,1.33098013184
-8.2880100657,-4.1099352511,3.46590968916,-2.19987319172
-11.9236971823,-5.24788337187,4.37707156428,-4.96072651529
-9.9093842989,-8.64583149263,3.22823343939,-7.67157983886
-13.6750714155,-9.1637796134,3.15939531451,-8.42243316242
-12.4607585321,-7.77172773417,3.52055718962,-6.55328648599
-12.5964456487,-10.8796758549,0.561719064735,-8.86413980956
-8.9221327653,-9.8076239757,-0.40711906015,-8.73499313312
-5.87781988189,-13.8555720965,0.0840428149641,-12.4758464567
-11.2135069985,-11.7335202172,0.795204690079,-8.46669978026
-12.0591941151,-10.901468338,2.67636656519,-7.28755310383
-9.4348812317,-8.95941645876,3.20752844031,-6.35840642739
-8.02056834829,-8.44736457952,0.628690315423,-5.84925975096
-9.01625546489,-12.2453127003,-3.22014780946,-9.55011307453
-1.88194258149,-12.1332608211,-3.93898593435,-7.92096639809
-4.35762969809,-12.4212089418,-3.04782405923,-6.35181972166
-4.62331681469,-16.3991570626,-3.27666218412,-11.0226730452
-3.60900393129,-14.6371051834,-4.25550030901,-9.8735263688
-0.944691047891,-10.3450533041,-2.76433843389,-3.84437969236
-0.560378164493,-8.68300142488,-0.913176558775,-4.39523301593
-5.35606528109,-5.13094954565,-0.982014683661,-8.4660863395
-2.55175239769,-8.39889766641,-2.66085280855,-10.1369396631
-0.917439514291,-5.39684578718,-1.90969093343,-5.10779298663
-4.40312663089,-4.41479390794,-3.11852905832,-3.9086463102
0.831186252512,-5.58274202871,-2.1573671832,-4.56949963377
3.39549913591,-2.25069014947,-1.58620530809,-0.930352957333
4.55981201931,1.73136172976,-1.65504343297,2.8387937191
3.38412490271,2.46341360899,-2.08388155786,1.12794039553
4.90843778611,3.60546548823,-1.79271968275,-0.352912928033
3.28275066951,3.65751736746,-1.22155780763,2.1562337484
11.8070635529,4.67956924669,-2.32039593252,7.42538042483
4.21137643631,2.62162112593,-3.2792340574,4.44452710127
6.74568931971,7.69367300517,-2.63807218229,7.6736737777
8.36000220311,9.7757248844,-1.43691030717,7.35282045413
3.31431508651,5.88777676363,-0.225748432058,6.50196713056
10.3386279699,6.28982864287,-1.10458655694,7.721113807
13.7129408533,8.6618805221,-0.773424681831,9.90026048343
14.9472537367,9.26393240134,-0.952262806715,10.0294071599
8.12156662012,11.6559842806,-1.6511009316,8.4485538363
8.27587950352,13.8480361598,0.490060943514,9.49770051273
18.9301923869,11.610088039,0.951222818629,8.52684718916
15.7545052703,16.0421399183,3.43238469374,11.9859938656
16.5188181537,15.6841917975,3.43354656886,14.635140542
18.0731310371,13.0662436767,1.86470844397,11.1842872185
19.1474439205,13.308295556,2.39587031909,8.73343389489
17.7717568039,9.91034743522,1.0770321942,7.68258057133
17.7560696873,12.3723993144,0.688194069317,9.21172724776
16.9803825707,9.80445119368,0.689355944429,8.22087392419
17.1146954541,11.9065030729,1.08051781954,9.80002060063
18.2690083375,15.3485549522,2.69167969466,11.8891672771
20.1433212209,16.0406068314,4.11284156977,13.5383139535
-6.9492550872,-6.22806686047,2.52951308139,-10.5915297965
-7.27544669016,-5.9499796855,0.927809381292,-9.75155368752
-1.30163829312,-5.85189251053,-0.133894318808,-6.79157757852
-5.00782989607,-5.53380533556,0.704401981091,-5.68160146952
-5.20402149903,-3.01571816059,3.26269828099,-6.13162536051
-6.51021310199,-3.20763098562,2.36099458089,-8.11164925151
-8.04640470495,-8.08954381065,2.29929088079,-10.6916731425
-3.8125963079,-4.06145663569,2.30758718069,-5.98169703351
0.671212089139,-5.88336946072,0.535883480588,-6.53172092451
-3.90497951382,-10.0552822858,-0.595820219512,-9.62174481551
-0.951171116776,-6.75719511078,0.132476080387,-4.00176870651
-0.627362719733,-1.77910793581,1.23077238029,-1.46179259751
-0.953554322688,-1.73102076085,-0.230931319815,-0.171816488513
-5.41974592565,-4.44293358588,0.247364980085,-4.21184037951
-11.8759375286,-1.23484641091,3.60566127998,-6.14186427051
-9.27212913156,-0.646759235944,4.02395757988,-5.46188816151
-5.05832073452,-3.94867206097,0.902253879782,-4.24191205251
-4.78451233748,-4.36058488601,-2.14944982032,-3.93193594351
-5.04070394043,-3.14249771104,-1.38115352042,-5.66195983451
-7.96689554339,-2.72441053607,-0.402857220519,-4.11198372551
-5.90308714635,-0.436323361104,-1.47456092062,1.84799238349
-6.53927874931,-0.808236186138,-0.56626462072,-3.30203150751
-5.25547035226,-3.39014901117,-1.17796832082,-3.85205539851
-7.02166195522,-1.6620618362,-2.53967202092,-4.28207928951
-3.47785355818,-3.18397466123,-1.18137572102,-6.52210318051
-5.19404516114,-5.27588748627,-0.643079421123,-6.98212707151
-6.97023676409,-4.2878003113,-1.32478312122,-7.44215096251
-8.61642836705,-2.84971313633,-0.796486821324,-9.48217485351
-7.60261997001,-6.12162596136,-1.92819052143,-9.85219874451
-12.668811573,-1.48353878639,-1.15989422153,-4.78222263551
-8.45500317592,-2.23545161142,-2.24159792163,-6.29224652651
-2.86119477888,-1.10736443646,-2.09330162173,-2.34227041751
7.11261361816,5.88072273851,-2.17500532183,3.11770569149
1.3064220152,0.348809913477,0.043290978072,-0.282318199509
4.42023041225,4.75689708845,3.72158727797,5.19765790949
1.70403880929,5.55498426342,3.81988357787,5.01763401849
3.00784720633,11.0130714384,5.41817987777,10.3876101275
7.98165560338,9.82115861335,2.58647617767,14.2075862365
7.91546400042,10.4792457883,2.06477247757,14.3075623455
8.32927239746,9.77733296329,2.63306877747,16.9375384545
6.1530807945,9.24542013826,2.84136507737,13.2375145635
13.8868891915,9.79350731322,3.31966137727,12.0674906725
3.50069758859,11.5515944882,4.04795767717,10.5174667815
7.57450598563,9.34968166316,3.78625397706,7.55744289049
-0.791685617325,5.12776883813,3.01455027696,5.64741899949
-2.57787722028,8.36585601309,2.80284657686,12.4473951085
7.11593117676,5.08394318806,1.49114287676,7.27737121749
0.229739573802,0.152030363028,-0.150560823338,1.16734732649
6.07354797085,4.300117538,1.06773547656,3.56732343549
-0.442643632112,-4.78179528703,0.456031776461,-0.592700455505
1.93116476493,-5.11370811207,-1.12567192364,-3.7827243465
3.97497316197,-6.0156209371,-1.69737562374,-3.8327482375
0.0487815590132,-9.95753376213,-3.02907932384,-6.5727721285
3.10258995606,-5.02944658716,-3.75078302394,-0.922796019504
-0.6736016469,-7.37135941219,-3.81248672404,-1.7128199105
1.93020675014,-6.64327223723,-3.86419042414,0.737156198496
8.46401514718,-6.63518506226,-3.65589412424,-1.2428676925
9.22782354423,-0.787097887289,-2.25759782434,0.987108416496
11.0916319413,0.650989287678,-0.549301524446,3.7470845255
4.30544033831,0.839076462646,-0.0510052245463,5.5470606345
4.73924873535,4.73716363762,0.407291075353,8.8670367435
1.1030571324,6.55525081258,1.28558737525,7.9170128525
5.53686552944,6.90333798755,0.093883675152,8.5769889615
8.70067392648,5.35142516252,0.972179975051,8.8869650705
1.55448232353,2.02951233749,0.58047627495,7.0369411795
8.19829072057,0.347599512454,-1.06122742515,5.7169172885
6.55209911761,-0.0243133125769,-1.27293112525,2.8468933975
3.85590751465,1.72377386239,-1.84463482535,2.5468695065
1.60971591169,4.55186103736,-2.19633852545,5.1268456155
5.97352430874,2.18994821233,-4.08804222555,5.3668217245
13.2673327058,2.49803538729,-3.68974592565,7.1867978335
8.13114110282,3.30612256226,-2.99144962575,7.4667739425
14.7549494999,9.64420973723,-2.71315332585,6.7667500515
10.0487578969,4.1322969122,-3.99485702596,4.2767261605
7.46256629395,4.82038408716,-3.18656072606,3.3067022695
6.22637469099,4.55847126213,-2.36826442616,1.3266783785
3.61018308803,0.676558437099,-2.06996812626,-1.5233455125
-3.26600851493,-0.0953543879295,-4.25167182636,-3.2533694035
-0.82220011788,5.75273278704,-4.12337552646,0.986606705502
2.14160827916,1.200819962,-3.64507922656,-1.0534171855
1.4354166762,-0.281092863028,-3.36678292666,-0.513441076499
6.13922507325,5.06699431194,-3.53848662676,4.8665350325
9.81303347029,7.13508148691,-3.69019032686,7.7665111415
5.18684186733,6.92316866188,-3.09189402696,4.6664872505
3.56065026437,4.07125583684,-2.77359772706,2.3164633595
8.49445866141,0.909343011816,-3.65530142716,5.8564394685
9.05826705846,1.56743018678,-3.15700512726,3.0764155775
3.0920754555,3.99551736175,1.12129117264,4.0963916865
7.12588385254,8.02360453672,0.729587472533,8.5763677955
4.02969224959,7.12169171169,0.497883772434,7.9463439045
7.25350064663,7.25977888665,0.846180072333,9.9063200135
4.84730904367,7.76786606162,0.834476372233,9.06629612251
2.62111744071,6.88595323659,1.11277267213,8.4562722315
8.46492583776,6.67404041156,0.22106897203,8.19624834051
4.2887342348,4.13212758653,-0.750634728069,9.79622444951
5.21254263184,1.53021476149,0.397661571831,3.63620055851
5.55635102888,3.72830193646,2.01595787173,1.59617666751
1.72015942593,3.46638911143,2.00425417163,2.65615277651
6.98396782297,2.1344762864,0.672550471529,5.10612888551
4.28777622001,4.78256346137,1.36084677143,4.67610499451
4.16158461705,2.40065063633,1.29914307133,6.05608110351
3.2553930141,3.3987378113,-0.232560628774,5.12605721251
1.64920141114,2.91682498627,-0.174264328874,4.35603332151
7.98300980818,2.14491216123,-0.165968028976,5.73600943051
4.92681820523,5.0629993362,1.00232827092,7.08598553951
1.85062660227,4.44108651117,1.33062457082,7.92596164851
3.40443499931,1.16917368614,1.96892087072,-1.09406224249
5.28824339635,3.50726086111,2.37721717062,-0.434086133492
1.03205179339,-1.76465196392,0.665513470522,-3.90411002449
-9.80413980956,-5.03656478896,-1.11619022958,-8.09413391549
-10.0203314125,-2.15847761399,-1.09789392968,-6.09415780649
-13.1465230155,-11.490390439,-4.84959762978,-9.99418169749
-12.4227146184,-6.32230326405,-2.27130132988,-9.01420558849
-10.1089062214,-3.25421608908,2.36699497002,-6.58422947949
-12.2250978244,-4.46612891411,4.74529126992,-7.91425337049
-9.40128942731,-7.31804173915,3.73358756982,-10.7242772615
-10.7074810303,-6.54995456418,1.06188386972,-10.1943011525
-8.17367263322,-6.02186738921,1.36018016961,-8.48432504349
-8.50986423618,-2.63378021425,1.50847646951,-4.93434893449
-10.7360558391,-6.27569303928,1.11677276941,-7.13437282549
-8.31224744209,-8.40760586431,1.27506906931,-9.91439671649
-10.738439045,-7.34951868934,2.54336536921,-12.5444206075
-9.65463064801,-7.56143151438,4.07166166911,-13.4944444985
-9.96082225097,-3.7233443394,4.45995796901,-9.52446838949
-14.4670138539,-12.4352571644,1.47825426891,-13.2644922805
-9.95320545688,-13.5171699895,1.17655056881,-11.5345161715
-7.45939705984,-10.7190828145,1.16484686871,-11.5445400625
-12.3455886628,-10.0609956395,1.52314316861,-12.1545639535
-12.216315407,-6.74847747092,-0.177768895352,-10.3274454942
-5.01259759544,-6.86995198909,-0.629854965895,-10.079045762
-5.44887978391,-6.28142650727,-0.831941036442,-8.6506460298
-3.65516197239,-2.67290102544,-1.64402710699,-6.98224629761
-4.95144416086,-7.46437554362,-1.71611317753,-10.6938465654
-6.72772634933,-7.90585006179,-1.40819924808,-9.90544683323
-5.85400853781,-7.37732457996,-0.320285318625,-8.85704710104
-9.93029072628,-7.43879909814,-0.26237138917,-11.6086473688
-7.84657291475,-7.63027361632,0.925542540284,-11.8602476367
-11.5028551032,-7.71174813449,2.07345646974,-14.9218479045
-16.8391372917,-13.0632226527,-1.59862960081,-15.2534481723
-18.8954194802,-12.4246971708,-1.80071567135,-16.9550484401
-18.3917016686,-16.506171689,-3.2128017419,-19.8166487079
-13.9179838571,-11.0276462072,-2.21488781244,-12.0182489757
-10.4242660456,-11.2091207254,-3.22697388299,-12.7998492435
-7.15054823406,-9.80059524353,-1.73905995354,-10.4114495113
-0.726830422536,-7.17206976171,0.00885397591992,-5.49304977912
-3.96311261101,-5.82354427988,-0.983232094626,-7.90465004692
-0.539394799485,-9.83501879806,-3.82531816517,-8.64625031473
7.78432301205,-7.38649331623,-3.51740423572,-2.99785058254
-0.301959176428,-7.62796783441,-2.54949030626,-3.57945085035
-2.1982413649,-5.66944235258,-0.451576376809,-1.14105111816
-1.60452355337,-3.67091687076,0.166337552644,-2.50265138596
0.879194258152,-9.25239138893,-0.4157485179,-7.84425165377
7.30291206968,-6.4938659071,-1.40783458845,-6.73585192158
-3.20337011879,-8.06534042528,-1.96992065899,-9.12745218939
-5.51965230727,-6.58681494345,-0.522006729538,-9.0990524572
-2.55593449574,-8.46828946163,-0.554092800083,-7.20065272501
4.39778331579,-3.9897639798,-0.0861788706279,-4.25225299281
2.10150112732,-6.64123849798,-0.608264941175,-6.82385326062
1.08521893884,-2.09271301615,2.44964898828,-1.14545352843
12.5589367504,-1.14418753433,3.78756291773,0.812946203761
3.6426545619,6.5543379475,4.94547684719,2.76134593595
10.9763723734,2.24286342932,2.14339077664,3.64974566815
7.17009018495,4.00138891115,1.6213047061,3.17814540034
2.21380799648,5.61991439297,2.95921863555,3.02654513253
5.237525808,2.2484398748,2.66713256501,1.34494486472
7.05124361953,4.36696535662,2.41504649446,0.253344596914
6.32496143106,10.7254908384,1.53296042392,6.24174432911
10.2386792426,5.88401632028,0.30087435337,6.0601440613
12.8623970541,6.2925418021,-0.0212117171759,7.59854379349
6.42611486564,3.69106728393,0.106702212279,7.53694352568
6.56983267717,7.08959276575,1.62461614173,9.54534325787
8.12355048869,4.84811824758,0.092530071186,7.93374299006
8.83726830022,7.75664372941,0.000444000641437,7.17214272226
5.70098611174,7.10516921123,-1.4516420699,9.34054245445
13.2747039233,5.21369469306,-1.66372814045,9.91894218664
10.9184217348,10.0222201749,-1.375814211,13.2773419188
4.71213954633,8.83074565671,-1.40790028154,12.865741651
6.46585735786,9.30927113853,-0.629986352087,11.9541413832
5.68957516938,7.34779662036,0.637927577367,11.5525411154
5.82329298091,1.25632210218,0.0758415068212,7.6109408476
4.91701079244,5.24484758401,0.00375543627706,9.68934057979
4.05072860396,7.15337306583,0.291669365732,10.497740312
3.67444641549,9.22189854766,1.23958329518,8.36614004418
7.88816422701,10.1504240295,1.01749722464,10.7145397764
0.651882038543,4.31894951131,0.985411154094,8.88293950856
0.925599850074,7.43747499313,2.41332508355,13.3113392408
-0.680682338403,5.97600047496,2.541239013,9.72973897294
0.733035473124,8.10452595679,1.99915294246,12.8781387051
6.44675328465,6.97305143861,1.34706687191,14.8665384373
3.61047109618,12.2215769204,3.19498080137,17.5949381695
5.87418890771,14.2201024023,2.18289473082,19.6033379017
3.64790671923,14.6286278841,2.15080866028,16.4517376339
5.01162453076,9.91715336592,0.668722589729,11.9101373661
2.49534234228,6.08567884774,-1.25336348082,10.0585370983
-2.75093984618,5.07420432957,-0.0954495513633,8.26693683048
5.68277796534,0.902729811391,-2.04753562191,4.19533656267
6.22649577687,7.28125529322,-1.69962169245,6.16373629486
0.420213588397,3.03978077505,-3.491707763,3.23213602705
1.77393139992,3.98830625687,-2.91379383355,4.80053575925
-0.572350788552,4.89683173869,-1.37587990409,6.67893549144
2.30136702298,9.03535722052,-0.557965974636,8.12733522363
1.0750848345,6.88388270234,-0.970052045182,7.36573495582
1.97880264603,13.7024081842,1.88786188427,6.89413468801
1.49252045756,10.030933666,3.29577581373,7.36253442021
-1.23376173092,1.67945914782,0.00368974318008,3.1409341524
-4.58004391939,5.84798462965,0.0816036726337,4.14933388459
-8.63632610786,5.83651011147,-0.81048239791,4.02773361678
-4.67260829633,8.2350355933,-0.282568468456,2.62613334897
-4.55889048481,5.40356107512,-0.224654539003,4.38453308117
0.16482732672,5.23208655695,0.933259390451,7.00293281336
-3.47145486175,9.87061203877,3.14117331991,7.51133254555
2.57226294977,6.3991375206,2.32908724936,7.41973227774
5.6159807613,15.2576630024,3.39700117882,13.6181320099
5.75969857283,18.6861884843,5.62491510827,17.7465317421
11.6634163844,20.2147139661,5.78282903773,21.0349314743
5.81713419588,13.1832394479,4.59074296718,16.9433312065
3.23085200741,9.28176492973,0.428656896633,13.6517309387
7.52456981894,7.82029041155,-0.693429173913,11.0801306709
0.678287630461,5.52881589338,0.904484755541,7.72853040308
-3.47799455801,4.23734137521,2.552398685,4.08693013528
2.65572325352,8.55586685703,5.54031261445,4.77532986747
-2.55055893496,8.61439233886,4.75822654391,3.99372959966
-4.99684112343,4.96291782068,1.32614047336,-1.36787066815
-3.63312331191,3.34144330251,0.744054402814,-3.22947093596
-0.579405500375,-5.35003121567,1.09196833227,-7.52107120376
0.744312311148,-0.401505733844,1.73988226172,-2.53267147157
-2.36196987732,-1.82298025202,-0.212203808824,-1.26427173938
-2.03825206579,-0.314454770192,-0.844289879369,-3.63587200719
-2.88453425427,0.364070711632,-0.576375949913,-2.647472275
-1.40081644274,-3.66740380654,-0.628462020461,-4.6890725428
2.72290136878,0.541121675287,0.279451908993,-1.54067281061
5.69661918031,1.17964715711,1.30736583845,1.20772692158
-0.259663008157,4.53817263894,0.385279767903,3.51612665377
5.93405480337,-1.75330187924,-2.50680630264,-0.775473614036
5.0277726149,-1.67477639741,-2.93889237319,-2.11707388184
1.19149042642,-0.326250915587,-1.89097844373,-1.20867414965
8.61520823795,-4.15772543376,-3.44306451428,-3.71027441746
-1.81107395052,-5.03919995194,-5.43515058483,-3.64187468527
-1.697356139,1.68932552989,-3.09723665537,0.356525046923
3.02636167253,-2.23214898829,-2.35932272592,-0.695075220884
8.04007948405,-2.35362350646,-1.36140879646,-0.246675488693
8.65379729558,-8.17509802463,-1.48349486701,-6.5782757565
3.13751510711,-8.30657254281,-1.62558093755,-9.63987602431
-1.32876708136,-8.84804706098,-1.9376670081,-12.2114762921
-3.17504926983,-13.4195215792,-2.83975307864,-15.9430765599
-2.19133145831,-14.1509960973,-2.26183914919,-14.4746768277
-6.11761364678,-12.0824706155,-0.323925219735,-10.4462770955
-1.54389583525,-8.45394513368,0.0739887097188,-7.36787736335
-6.08017802373,-14.2554196519,0.871902639172,-13.8694776312
-11.1064602122,-20.16689417,-1.79018343137,-18.901077899
-10.6727424007,-19.4283686882,-3.36226950192,-19.3726781668
-11.3990245891,-17.8698432064,-0.734355572464,-16.1942784346
-11.5953067776,-16.3213177246,-1.38644164301,-17.2058787024
-12.5715889661,-14.9227922427,-0.318527713554,-20.4474789702
-15.6278711546,-18.9342667609,-0.500613784101,-22.639079238
-22.084153343,-16.9157412791,0.857300145353,-19.5306795058
3.5268386628,0.0487172965186,-5.50956031977,9.06127906977
-4.17153305827,-8.86042219831,-8.17583938953,0.496298297015
-6.31990477934,-8.35956169313,-6.8721184593,-2.07868247574
-5.4182765004,-10.988701188,-6.33839752907,-3.73366324849
-2.60664822147,-10.0178406828,-5.23467659884,-3.26864402124
-8.00501994254,-13.7169801776,-3.4509556686,-7.85362479399
-12.5433916636,-8.67611967244,-1.64723473837,-3.69860556675
-10.8517633847,-7.72525916727,-0.923513808139,-4.7735863395
-7.76013510574,-12.3643986621,-0.349792877907,-6.02856711225
-5.99850682681,-8.67353815692,-0.226071947674,-3.073547885
-3.54687854788,-9.75267765175,-1.66235101744,-3.43852865776
-1.56525026894,-7.78181714658,-1.75863008721,-2.72350943051
-4.81362199002,-5.31095664141,-0.624909156977,-2.68849020326
-5.27199371108,0.149903863767,1.72881177326,0.536529023988
-2.35036543215,-2.60923563106,1.23253270349,2.43154825124
0.101262846783,-5.16837512589,0.576253633721,2.47656747848
-2.42710887428,-0.797514620714,-0.0800254360474,2.22158670573
-6.57548059535,4.01334588446,2.59369549419,6.39660593298
-9.91385231642,0.824206389636,3.78741642442,-0.198374839773
-7.04222403749,-5.24493310519,1.59113735465,-4.37335561253
-8.57059575856,-7.89407260002,-0.635141715116,-5.71833638528
-12.2589674796,-4.31321209485,-2.34142078488,-9.70331715803
-12.4673392007,-4.01235158967,-4.15769985465,-7.33829793078
-8.67571092176,-6.2114910845,-3.56397892442,-5.46327870353
-5.73408264283,-1.19063057933,-2.47025799419,-2.97825947629
-3.5524543639,-1.09977007416,-3.35653706395,-3.70324024904
-6.67082608496,6.65109043102,0.767183866281,1.17177897821
-0.25919780603,7.08195093619,2.71090479651,4.87679820546
1.6524304729,1.30281144136,1.69462572674,1.6518174327
6.60405875184,3.61367194654,1.14834665698,2.90683665995
11.8056870308,5.10453245171,1.07206758721,1.6318558872
3.0373153097,11.7453929569,2.49578851744,3.67687511445
2.98894358863,12.9862534621,4.13950944767,6.3418943417
3.29057186756,12.1471139672,6.16323037791,5.46691356894
-2.50779985351,13.4779744724,7.40695130814,3.31193279619
-0.0961715745725,4.96883497757,2.57067223837,0.746952023439
-1.44454329564,-3.02030451726,-2.13560683139,-2.81802874931
-3.58291501671,-0.709444012082,-1.47188590116,-5.27300952206
-1.26128673778,1.11141649309,-1.76816497093,-1.98799029482
-5.71965845885,-2.56772300174,-0.814444040696,-5.99297106757
3.37196982009,-1.19686249657,-0.650723110464,-5.97795184032
4.39359809902,3.88399800861,0.372997819768,-2.60293261307
7.49522637795,7.65485851378,1.10671875,-2.40791338583
4.26685465688,7.77571901895,1.85043968023,-2.23289415858
7.58848293582,10.2865795241,2.49416061047,0.922125068669
4.20011121475,6.8974400293,0.247881540698,-0.802855704083
7.28173949368,10.1283005345,1.56160247093,3.44216352316
12.2333677726,9.90916103965,2.35532340116,3.52718275041
14.7349960515,8.74002154482,0.809044331396,5.13220197766
6.04662433048,5.26088204999,0.82276526163,3.18722120491
12.2382526094,9.03174255517,0.626486191861,3.61224043215
10.8398808883,11.5126030603,0.600207122094,8.0572596594
10.4515091673,10.6134635655,0.413928052327,7.49227888665
6.04313744621,10.1543240707,3.15764898256,8.9472981139
6.72476572514,8.93518457586,4.13136991279,3.64231734115
6.13639400407,4.84604508103,3.29509084302,0.977336568394
10.528022283,4.2969055862,1.98881177326,2.34235579564
7.88965056194,2.11776609138,-1.23746729651,-0.23262497711
6.25127884087,1.09862659655,-2.45374636628,-0.0976057498619
6.0829071198,-1.30051289828,-3.72002543605,0.00741347738585
12.2645353987,6.17034760689,-0.256304505814,3.29243270463
6.53616367767,5.82120811207,0.807416424421,4.85745193188
1.6777919566,3.37206861724,1.96113735465,1.27247115913
3.27942023553,1.93292912241,1.83485828488,0.717490386377
5.98104851446,-0.386210372417,0.738579215116,-1.05749038638
2.6626767934,-3.27534986724,-0.277699854651,-4.72247115913
3.23430507232,-5.03448936207,-1.22397892442,-4.78745193188
6.31593335126,-3.70362885689,-0.320257994186,-1.93243270463
7.59756163019,-0.74276835172,1.41346293605,0.972586522616
4.25918990912,-1.63190784655,1.02718386628,0.627605749864
4.14081818805,3.13895265862,3.52090479651,4.36262497711
6.88244646699,3.2898131638,2.12462572675,3.10764420436
3.83407474592,2.11067366897,2.40834665698,1.18266343161
-1.46429697515,0.221534174143,3.22206758721,0.667682658855
5.69733130378,-3.58760532068,2.27578851744,1.5127018861
4.23895958272,-2.88674481551,2.35950944768,1.86772111335
7.87058786165,-5.11588431034,0.293230377907,-2.2872596594
4.07221614058,-5.06502380516,1.35695130814,-0.792240432154
2.78384441951,-2.92416329999,1.39067223837,-0.707221204906
4.92547269844,1.39669720518,2.77439316861,3.79779802234
6.18710097737,2.40755771035,1.77811409884,5.61281724959
8.48872925631,-1.13158178447,-1.35816497093,3.50783647684
4.88035753524,-1.0307212793,-1.1444440407,2.81285570408
4.35198581417,0.200139225872,0.349276889536,4.30787493133
2.24361409311,-2.26900026896,0.78299781977,1.37289415858
-1.24475762796,-2.83813976378,2.31671875,-0.212086614172
-3.18312934903,0.812720741389,3.25043968023,-0.257067386924
-0.231501070099,7.50358124656,4.62416061047,1.69795184032
0.740127208835,2.78444175174,2.3178815407,4.67297106757
-0.0682445122366,2.11530225691,0.231602470931,7.72799029482
-1.9566162333,2.95616276208,-0.474676598835,7.93300952207
-0.0649879543707,2.73702326725,1.8390443314,5.04802874931
-1.84335967544,1.89788377243,3.46276526163,3.05304797656
-5.6017313965,-2.1112557224,2.87648619186,-0.95193279619
-9.39010311757,-1.70039521723,3.54020712209,-1.35691356894
-1.76847483864,-0.709534712052,2.34392805233,-0.951894341694
-5.13684655971,2.36132579312,2.30764898256,0.383124885554
-1.18521828077,-1.33781370171,0.401369912794,-3.0618558872
-2.42359000184,-3.09695319653,-1.19490915697,-2.74683665995
-7.57196172291,-2.70609269136,0.228811773259,-3.5318174327
-5.05033344398,-3.92523218619,-0.517467296509,-2.88679820546
-1.43870516505,-0.894371681014,-2.31374636628,0.348221021793
-1.39707688611,2.46648882416,-0.600025436046,3.02324024904
-2.25544860718,-0.852650670669,-1.12630450581,2.46825947629
-1.32382032825,0.858209834503,-0.842583575579,4.40327870354
-3.08219204932,4.34907033967,0.711137354652,3.86829793078
6.07943622961,3.77993084485,-0.295141715114,5.94331715803
3.97106450855,4.50079135002,0.118579215119,2.02833638528
-11.1973072125,3.6916518552,0.132300145351,-1.03664438747
-3.11567893359,-2.82748763963,-1.39397892442,1.35837483978
-1.10405065466,-1.78662713446,-1.81025799418,-0.726605932977
0.227577624271,-1.01576662929,-1.30653706395,-0.261586705729
2.38920590321,-1.25490612411,-2.56281613372,-0.486567478481
-2.91916581786,-3.66404561894,-3.77909520349,-4.44154825123
-2.52753753893,-5.64318511377,-4.54537427325,-4.37652902399
-0.405909259996,-4.53232460859,-5.02165334302,-3.78150979674
2.91571901894,-0.0114641034197,-4.18793241279,0.15350943051
-2.92265270213,-4.83060359825,-4.91421148256,-1.46147134224
-3.9010244232,-6.87974309308,-1.41049055232,-2.35645211499
-6.96939614427,-4.4288825879,1.44323037791,-1.89143288775
-4.69776786534,-9.24802208273,-1.58304869186,-5.0664136605
-6.3961395864,-7.22716157756,-2.05932776163,-6.65139443325
-5.00451130747,-1.44630107238,-1.33560683139,-3.466375206
-4.71288302854,-3.40544056721,-1.81188590116,-3.24135597876
-7.0512547496,-3.35458006204,-1.77816497093,-2.19633675151
-10.4796264707,-5.42371955686,-2.16444404069,-6.53131752426
-4.08799819174,-1.14285905169,-1.99072311046,-4.96629829701
-13.3763699128,-4.60199854652,-2.84700218023,-8.21127906976
7.51532389196,3.30985182273,0.53468135326,3.31485969053
-1.6381433663,0.0298169334565,-0.0563949903972,0.599252900985
-1.09161062456,2.36978204419,0.752528665946,1.86364611144
