-12.3227906977,1.39525072675,-0.164444040696,-5.45148619186
-4.39976692684,0.985190183819,-0.762940738874,-2.17777799395
1.24325684398,3.79512964087,4.38856256294,4.35593020395
-0.733719385185,6.51506909793,3.73006586477,6.18963840185
8.36930438564,6.17500855499,-0.58843083341,1.95334659976
5.47232815647,-6.55505198795,-2.00692753159,-9.83294520234
-1.1046480727,-13.9151125309,-1.93542422976,-12.5492370044
-8.69162430186,-14.9051730738,-2.86392092795,-14.8455288065
-7.13860053103,-4.22523361677,-1.39241762612,-10.7718206086
-5.38557676021,-2.56529415971,-3.9509143243,-9.46811241073
-3.92255298938,-0.395354702654,2.79058897752,-4.58440421282
-4.66952921855,-0.475415245601,5.66209227934,-1.22069601492
-2.68650544772,-0.725475788531,4.46359558116,-3.08698781702
12.0865183231,9.00446366852,5.34509888299,3.19672038089
5.90954209394,1.06440312559,2.33660218481,-3.38957142121
0.552565864768,0.384342582642,1.61810548663,-3.24586322331
-4.0144103644,-3.7957179603,3.07960878845,-0.532155025405
-6.44138659357,-3.42577850324,0.631112090276,0.691553172497
-1.65836282275,-0.935839046186,-0.1173846079,1.0752613704
5.40466094809,4.04410041087,-2.49588130608,2.0889695683
-1.44231528109,-2.51596013206,-2.82437800426,0.892677766207
2.48070848975,-10.386020675,1.14712529756,-1.75361403589
4.06373226058,-5.38608121794,0.778628599386,-0.229905837985
2.01675603141,1.55385823911,1.19013190121,0.853802359918
-0.680220197763,0.813797696166,1.56163520303,0.637510557821
-0.487196426933,1.51373715323,0.723138504854,-2.99878124428
-0.434172656103,-2.37632338971,-0.515358193326,0.214926953628
-4.11114888528,-10.8763839327,-1.4838548915,-0.291364848468
1.91187488555,-1.81644447559,-1.10235158968,5.75234334943
-0.0451013436177,0.323494981465,-4.30084828786,0.506051547336
1.48792242722,-3.86656556147,-0.849344986036,-4.16024025476
4.20094619804,-3.24662610442,1.75215831578,0.703467943144
2.98396996887,-3.83668664736,2.99366161761,0.707176141046
5.87699373971,4.2032528097,2.55516491943,5.01088433895
8.71001751053,2.74319226676,-0.243331778747,5.93459253685
11.7830412814,5.46313172382,0.128171523073,6.83830073476
1.9160650522,-2.52692881912,-1.3403251751,3.09200893266
4.44908882302,-2.79698936206,-0.858821873284,-1.25428286944
5.20211259385,1.282950095,0.112681428542,2.57942532847
5.14513636468,14.2128895521,0.194184730364,10.0531335264
3.92816013551,9.33282900911,0.185688032183,7.03684172427
0.401183906339,0.412768466173,-0.972808665996,0.590549922175
3.41420767717,-2.39729207677,-1.96130536417,-0.275741879919
10.757231448,5.13264738028,-0.76980206235,6.10796631798
5.25025521883,6.71258683735,-0.978298760525,7.93167451588
4.40327898965,-1.1374737056,-3.47679545871,0.11538271379
5.33630276049,-2.86753424853,-6.74529215688,-5.67090908831
-8.56067346868,-5.48759479148,-6.04378885506,-6.9372008904
-7.18764969786,2.19234466559,-3.68228555324,0.9165073075
3.80537407297,7.05228412265,-4.77078225142,7.0302155054
2.5383978438,3.38222357971,-4.4892789496,7.8239237033
6.77142161463,0.262163036758,-2.08777564777,9.97763190121
5.80444538547,2.72210249382,0.563727654047,8.87134009911
3.53746915629,9.37204195088,1.80523095587,8.81504829702
8.60049292712,10.1919814079,1.59673425769,6.67875649492
3.47351669796,13.711920865,4.41823755951,8.09246469282
-10.0834595312,6.06186032205,1.56974086134,2.98617289073
-9.29043576038,-5.63820022088,-2.01875583684,-2.60011891137
-12.7274119896,-1.35826076382,0.342747464983,-2.40641071347
-7.21438821873,0.781678693231,2.8542507668,-0.382702515564
-5.0113644479,0.841618150291,2.53575406862,3.29100568234
-2.36834067707,-2.31844239265,2.38725737045,1.50471388024
-4.20531690624,0.381497064409,-0.821239327732,4.53842207815
-2.47229313541,-0.188563478529,0.740263974094,2.06213027605
-5.43926936459,1.84137597853,-0.70823272409,0.415838473951
-3.99624559375,-0.158684564412,-2.12672942227,-1.00045332815
5.37677817708,2.05125489264,1.01477387956,3.07325486976
-2.0301980521,7.1211943497,2.74627718138,4.73696306766
-4.18717428127,3.13113380676,-0.592219516799,1.82067126557
-3.14415051043,4.37107326382,-0.490716214979,1.82437946347
-8.30112673961,1.91101272088,-1.30921291315,0.468087661371
-2.94810296877,-1.24904782206,-1.02770961133,2.38179585928
-6.15507919795,-1.599108365,-1.72620630951,1.87550405718
-8.80205542711,0.410831092056,-3.01470300769,-1.71078774492
-7.26903165628,1.43077054912,-1.86319970587,-1.32707954701
-7.43600788546,7.68071000617,0.318303595956,5.05662865089
-3.65298411463,2.58064946323,4.41980689778,1.73033684879
0.230039656206,-3.10941107971,2.5113101996,1.0440450467
1.17306342703,2.67052837735,1.64281350142,2.1477532446
2.03608719786,10.6004678344,3.55431680324,2.8514614425
-0.450889031301,7.62040729147,2.71582010507,0.315169640406
-0.0678652604765,2.18034674853,2.28732340689,2.73887783831
2.49515851036,0.880286205589,2.02882670871,0.512586036211
-3.46181771882,-1.96977433735,2.37033001053,0.026294234116
-1.45879394799,-0.879834880296,1.02183331235,-3.17999756798
2.64422982284,-3.12989542324,-3.12666338582,-3.99628937008
0.64725359367,-10.5299559662,-2.195160084,-7.47258117217
2.4202773645,-12.9100165091,-2.72365678218,-11.0388729743
-3.66669886467,-8.36007705206,-1.19215348036,-12.0151647764
-6.99367509384,-7.780137595,-3.03065017854,-12.7014565785
-1.43065132301,-12.3501981379,-3.41914687671,-13.2077483806
-5.46762755218,-17.1402586809,-3.14764357489,-15.6340401827
-4.96460378135,-17.4803192238,-3.35614027307,-12.9203319848
0.968419989476,-6.96037976677,-2.38463697125,-7.79662378685
2.16144376031,-0.60044030971,-1.81313366943,0.707084411049
1.05446753113,1.42949914735,-2.0916303676,-1.20920739105
5.24749130197,-1.78056139559,-3.65012706578,-0.835499193143
4.27051507279,1.42937806148,-0.90862376396,0.308209004759
4.33353884362,4.16931751853,-1.02712046214,2.06191720266
8.43656261446,11.4092569756,-0.485617160317,10.2056254006
4.59958638528,2.50919643265,1.87588614151,-0.910666401531
3.31261015611,-0.920864110296,1.50738944333,-3.71695820363
2.58563392694,-4.64092465324,0.55889274515,-2.12325000572
0.858657697769,4.77901480383,1.35039604697,2.29045819218
-1.9883185314,2.00895426088,1.00189934879,1.58416639008
-1.31529476057,0.428893717944,-0.126597349383,-0.262125412013
-3.09227098974,-4.071166825,-1.27509404756,-1.61841721411
1.95075278109,-1.64122736795,2.06640925426,4.75529098379
9.51377655192,8.02871208912,2.65791255608,8.9889991817
3.15680032275,8.04865154617,1.43941585791,6.4127073796
0.469824093583,4.14859100324,1.52091915973,5.2164155775
-0.0771521355928,-2.30146953971,-0.407577538448,1.60012377541
-4.51412836476,-0.11153008265,-0.75607423663,3.10383197331
-1.22110459393,5.84840937441,0.0854290651914,4.43754017121
1.6319191769,10.8483488315,5.47693236702,5.25124836912
-4.28505705227,1.80828828853,2.55843566884,2.14495656702
6.07796671856,0.968227745594,1.83993897066,5.35866476492
5.42099048939,-5.25183279735,-0.518557727519,-0.157627037173
-6.73598573978,-2.48189334029,-0.127054425695,-4.68391883927
2.57703803104,4.34804611676,0.774448876127,-1.48021064137
6.19006180188,-1.27201442618,-1.11404782205,-1.91650244346
-6.71691442729,-5.30207496911,1.13745547977,-4.43279424556
-11.2438906565,-7.21213551205,1.65895878159,-4.84908604766
-1.33086688563,-1.162196055,2.23046208341,-1.44537784975
6.5621568852,0.55774340206,0.211965385235,-2.04166965185
0.785180656021,2.12768285912,-1.00653131294,-0.777961453947
3.16820442685,-5.47237768382,-2.38502801112,-5.86425325604
1.69122819768,-2.62243822676,0.976475290703,-2.70054505814
0.694153343036,-2.62125363371,-3.15770712211,2.4796875
3.7400045207,3.48138298847,-0.931998889864,2.59020669292
11.4058556984,-0.705980389343,-1.33629065763,2.39072588583
7.93170687604,-1.59334376716,-1.12058242539,4.04124507874
-3.06244194629,-2.44070714498,-0.584874193155,0.491764271654
0.603409231378,-0.318070522793,-1.48916596091,2.36228346457
-2.93073959095,1.25456609939,-1.33345772868,-0.567197342518
0.595111586721,0.177202721577,-2.11774949644,0.733321850395
0.840962764385,-5.00016065624,-1.6320412642,-0.746158956692
7.47681394206,-7.41752403406,-1.63633303197,0.254360236222
4.46266511972,-7.59488741187,-4.77062479973,0.144879429135
-1.31148370261,-1.57225078969,-6.15491656749,-0.194601377951
1.72436747506,0.120385832495,-0.50920833525,1.21591781496
-3.67978134727,-7.62697754532,-4.53350010301,-4.35356299213
-4.4439301696,-9.19434092313,-6.08779187078,-3.95304379921
3.40192100807,-1.10170430095,-4.45208363854,2.0174753937
12.6077721857,10.0609323212,-3.4563754063,8.74799458661
9.20362336341,5.07356894342,-5.07066717406,3.75851377953
8.32947454107,7.24620556561,-3.46495894183,7.79903297244
8.44532571874,8.62884218779,-2.56925070958,7.23955216536
7.30117689641,8.81147880998,-0.453542477349,6.44007135827
7.14702807408,12.9741154322,0.012165754888,4.82059055118
6.65287925175,7.47675205435,0.227873987129,0.711109744094
4.05873042942,0.92938867653,0.403582219362,0.531628937008
3.53458160709,3.21202529872,-0.670709548398,1.98214812992
8.75043278476,4.7546619209,-0.545001316161,-0.00733267716532
5.14628396242,10.1872985431,6.16070691608,2.51318651575
2.73213514009,4.62993516527,0.696415148315,5.71370570866
3.23798631776,1.99257178745,1.45212338055,4.90422490158
5.00383749543,6.21520840963,5.82783161279,5.01474409449
6.8596886731,0.0478450318114,2.43353984503,-1.7747367126
-0.294460149227,-4.76951834599,-3.27075192273,-8.77421751969
-2.26860897156,-3.65688172381,-3.3650436905,-5.78369832677
-2.3327577939,-6.96424510163,-3.34933545826,-6.56317913386
0.0530933837726,-8.08160847945,-3.19362722602,-5.87265994094
1.52894456145,0.22102814274,-3.30791899379,-2.86214074803
2.33479573912,11.2136647649,1.70778923846,4.66837844488
-3.43935308322,7.03630138711,3.87349747069,0.738897637797
1.49649809446,-5.10106199071,-2.21079429707,-0.72058316929
5.12234927213,0.271574631479,3.15491393517,2.74993602362
10.7282004498,6.33421125366,6.61062216741,5.87045521653
3.35405162746,6.57684787585,5.24633039964,3.88097440945
3.90990280513,-0.770515501972,2.00203863188,0.891493602363
5.6057539828,-3.58787887979,1.23774686412,-1.81798720472
6.63160516047,-6.5352422576,-0.666544903645,-5.52746801181
11.8374563381,-6.47260563542,-2.7708366714,-3.8769488189
11.1233075158,-2.25996901323,-2.80512843917,-0.076429625984
4.16915869347,1.09266760896,-1.25942020693,1.39408956693
3.89500987114,-5.29469576886,1.12628802531,-0.845391240156
0.830861048809,-5.74205914668,-0.978003742453,-2.56487204724
3.80671222648,1.4105774755,1.64770448978,-0.0643528543314
4.18256340415,5.7032140977,1.18341272202,0.696166338583
1.94841458182,3.31585071988,0.349120954263,1.6566855315
-9.02573424052,-3.28151265794,0.0348291864975,-3.57279527559
-4.01988306285,-7.85887603576,-1.28946258126,-5.74227608268
-3.89403188518,-4.63623941358,0.666245650973,-7.06175688976
-12.2581807075,-5.61360279139,0.961953883212,-8.16123769685
-14.5823295298,-5.5509661692,-1.19233788455,-9.19071850394
-19.7864783522,-8.87832954702,1.57337034769,-9.95019931102
-16.4606271745,-1.47569292484,5.56907857993,-6.17968011811
-6.22477599683,4.17694369735,5.29478681216,-0.409160925197
-11.6589248192,8.44958031953,8.6004950444,3.74135826772
-13.9830736415,5.75221694171,5.33620327664,0.611877460629
-8.60722246383,0.0748535638995,3.99191150888,-0.797603346457
-4.15137128616,-0.482509813912,3.46761974111,-1.88708415354
-4.51552010849,-3.46987319173,1.43332797335,-3.11656496063
-2.56966893082,-5.30723656955,-0.0509637944087,-5.28604576772
-10.1338177532,-4.85459994736,-0.255255562173,-6.8155265748
-11.8279665755,-12.3919633252,-1.39954732993,-10.3650073819
-10.2021153978,-9.99932670299,-0.663839097699,-8.15448818898
-14.3362642201,-7.64669008081,-0.598130865459,-6.41396899606
-14.2504130425,-6.46405345862,0.467577366777,-10.8134498032
-13.0645618648,-8.38141683643,-1.05671440099,-11.6029306102
-24.1287106871,-8.52878021426,1.50899383126,-10.2824114173
-16.2228595095,-10.8161435921,2.71470206349,-8.94189222441
-9.1170083318,-10.0235069699,-0.68958970427,-8.6313730315
-6.30115715414,-9.15087034769,-1.32388147204,-10.1508538386
0.154694023535,-5.55823372552,0.331826760204,-6.69033464567
2.6405452012,-9.10559710333,-1.08246500756,-7.55981545276
-7.55360362113,-4.27296048115,1.79324322468,-1.45929625984
-6.81775244346,4.17967614104,5.54895145692,4.17122293307
-0.791901265788,8.55231276323,4.60465968915,7.54174212598
1.78394991189,7.17494938541,3.30036792139,7.5022613189
-5.40019891045,4.98758600759,3.52607615363,7.76278051181
-4.28434773278,7.27022262977,3.52178438587,9.93329970472
-0.948496555116,7.72285925196,5.52749261811,9.10381889764
-5.98264537744,9.79549587415,6.41320085034,8.83433809055
-8.95679419977,4.92813249632,4.17890908258,1.16485728346
-8.51094302211,-0.149230881492,2.11461731482,-0.154623523624
-5.96509184444,-3.3565942593,-2.37967445294,-2.92410433071
-5.74924066677,-1.12395763712,-0.573966220705,-2.4135851378
-5.8333894891,5.96867898506,3.17174201153,4.51693405512
-0.947538311433,11.8913156072,6.16745024377,10.887453248
-2.17168713376,4.62395222943,7.10315847601,8.70797244095
-5.52583595609,4.89658885162,7.42886670825,7.79849163386
-4.36998477842,7.3592254738,5.37457494048,6.18901082677
-4.66413360075,13.681862096,7.15028317272,9.42953001968
-1.86828242309,10.3744987182,6.14599140496,6.8500492126
-1.28243124542,-0.412864659644,1.2916996372,2.69056840551
-9.15658006775,-3.61022803746,2.17740786944,2.16108759842
-7.55072889008,5.60240858472,2.84311610167,5.19160679134
-3.95487771241,11.1050452069,4.78882433391,8.70212598425
-1.09902653474,13.8776818291,8.33453256615,10.3126451772
-5.21317535707,3.24031845128,3.73024079839,5.97316437008
-4.1573241794,0.942955073457,2.35594903063,5.74368356299
-12.5914730017,8.42559169565,3.96165726286,8.5142027559
-4.18562182407,7.49822831783,1.1473654951,4.87472194882
-6.6497706464,8.93086494001,-0.716926272664,5.87524114173
-8.46391946873,1.6835015622,0.0887819595773,-0.244239665355
-9.61806829106,-2.85386181562,-1.68550980819,-5.65372047244
-5.65221711339,-1.57122519343,-4.90980157595,-4.02320127953
1.74363406428,-2.03858857125,-3.81409334371,-3.44268208661
2.88948524195,-1.18595194907,-4.04838511147,-1.5921628937
2.06533641961,-9.81331532688,-3.73267687924,-2.24164370079
7.51118759728,-12.8506787047,-5.076968647,-7.09112450788
10.547038775,-4.84804208251,-4.73126041476,-5.86060531496
11.6928899526,-1.35540546033,-5.58555218253,-4.19008612205
15.4787411303,-10.7527688381,-9.04984395028,-10.9395669291
11.214592308,-16.310132216,-10.414135718,-13.7790477362
7.91044348563,-10.3174955938,-7.91842748581,-9.10852854331
10.4762946633,-15.1448589716,-14.4527192536,-10.2280093504
15.652145841,-5.75222234941,-9.48701102133,-5.13749015748
14.3779970186,-1.72958572722,-4.15130278909,0.133029035431
17.1038481963,-2.95694910504,-5.72559455686,2.03354822834
20.949699374,1.15568751715,-3.93988632462,4.22406742126
24.3455505516,7.08832413933,-2.58417809238,7.48458661417
25.9314017293,13.5009607615,-0.168469860142,14.8651058071
22.087252907,12.9435973837,-1.09276162791,10.235625
4.39497819768,5.19815406977,0.612707122087,3.80234738373
5.16936953513,1.38663048205,-0.574994220387,2.09396273004
4.01376087256,9.18510689434,2.83730443714,6.75557807637
-3.03184779,12.3335833066,3.15960309466,2.73719342268
-4.60745645256,1.95205971893,-1.55809824781,0.00880876900192
0.496934884883,5.16053613121,2.18420040972,1.67042411532
5.36132622232,1.99901254349,1.68649906725,-0.41796053836
4.34571755976,2.95748895578,-1.00120227523,-2.81634519204
2.64010889719,5.76596536807,-1.5489036177,-5.28472984572
5.62450023463,6.71444178036,-1.57660496018,-0.5631144994
6.01889157206,1.50291819264,-2.61430630265,0.728500846917
13.3632829095,1.72139460492,-0.162007645125,3.91011619324
14.8076742469,7.25987101722,0.410291012406,4.77173153956
14.7020655844,4.7683474295,0.292589669931,4.25334688588
11.0764569218,3.2568238418,-0.205111672545,4.0349622322
7.22084825926,2.24530025408,-0.282813015019,-0.0434224214841
4.7452395967,-11.9962233336,-5.61051435749,-7.63180707517
3.95963093414,-4.15774692135,-2.88821569997,-4.62019172885
0.824022271576,-3.98927050906,-1.13591704244,-4.04857638253
1.99841360901,-4.40079409678,-3.10361838492,-5.55696103621
-6.59719505355,-8.05231768449,-1.73131972739,-3.86534568989
-5.94280371611,-9.3338412722,-2.73902106986,-6.18373034357
-7.71841237867,-1.51536485992,-3.17672241234,-4.65211499725
-6.73402104124,-3.91688844762,-1.99442375481,-8.28049965093
-1.31962970379,-3.20841203534,-1.91212509729,-5.15888430461
-12.3252383664,-7.70993562305,-2.43982643976,-6.06726895829
-7.66084702892,-8.00145921077,-2.48752778223,-9.22565361197
-8.76645569148,-5.97298279848,-2.65522912471,-4.99403826565
-8.01206435405,1.83549361381,3.23706953282,-0.392422919333
-1.38767301661,8.22397002609,2.46936819035,4.95919242699
-3.97328167917,5.13244643839,3.18166684788,7.0908077733
2.77110965827,5.12092285067,6.2739655054,12.7124231196
-1.82449900429,8.66939926296,7.02626416292,11.3840384659
-0.240107666854,9.66787567524,6.28856282045,5.47565381226
1.91428367059,6.93635208753,5.27086147798,4.45726915858
3.19867500802,2.09482849982,3.2531601355,0.848884504901
0.333066345454,-3.7866950879,2.30545879303,-2.50950014878
-4.12254231711,-5.53821867561,-0.322242549442,-5.87788480246
2.66184902034,-3.34974226332,-0.00994389191692,-5.03626945614
-1.04375964222,-3.25126585103,0.422354765607,-3.79465410982
-6.38936830479,-6.09278943875,-0.515346576867,-5.3930387635
-14.9149769673,-13.5243130265,-3.59304791934,-8.15142341718
-15.6205856299,-9.66583661418,-5.41074926181,-10.5498080709
-7.35619429247,-5.15736020189,-4.62845060429,-7.76819272454
-9.67180295504,-10.5788837896,-0.996151946758,-9.54657737823
-10.6474116176,-12.5004073773,-1.67385328923,-12.2549620319
-11.3630202802,-7.25193096503,0.50844536829,-4.69334668559
-10.2986289427,-1.59345455273,3.78074402582,-0.301731339267
-4.01423760528,7.43502185955,4.26304268334,6.05988400705
-9.80984626785,9.84349827183,4.14534134087,10.5014993534
-9.84545493041,7.46197468412,5.81763999839,11.4031146997
-3.66106359297,10.0504510964,7.03993865592,13.604730046
1.49332774447,12.6789275087,6.81223731345,16.6163453923
4.0977190819,15.557403921,5.52453597097,15.5279607386
4.33211041935,10.0258803333,4.3068346285,11.949576085
6.64650175678,10.2443567455,7.18913328603,14.2411914313
0.520893094224,10.5428331578,8.81143194355,12.7928067776
1.48528443166,16.8713095701,7.64373060108,14.1544221239
7.2496757691,15.0897859824,3.89602925861,12.5760374702
10.9440671065,7.6182623947,5.56832791613,7.89765281657
6.71845844397,1.42673880699,2.95062657366,7.63926816288
3.21284978141,-2.74478478073,-0.677074768817,2.3308835092
2.91724111885,-3.93630836844,-1.76477611129,-1.38750114448
2.93163245628,5.49216804385,-0.652477453765,1.55411420184
8.32602379373,-7.07935554386,-4.84017879624,-3.11427045184
7.18041513117,-13.6108791316,-4.55788013871,-3.68265510552
4.8848064686,-10.1524027193,-2.06558148119,-2.2110397592
12.789197806,-6.583926307,-2.98328282366,-2.26942441288
4.20358914348,-9.11544989471,-5.83098416614,-4.57780906656
11.1679804809,1.98302651757,-3.37868550861,0.703806279758
-5.05762818165,-6.51849707014,-2.09638685108,-4.35457837392
-5.62323684421,-7.56002065785,-1.87408819356,-3.8929630276
-8.28884550677,-2.80154424557,-0.141789536028,-3.32134768128
-7.80445416932,-1.20306783327,-0.329490878503,-2.99973233496
-9.65006283189,1.23540857901,-0.557192220978,-2.51811698865
-10.4656714945,-6.69611500871,-2.42489356345,-3.10650164233
-9.11128015701,-11.3476385964,-3.03259490593,-8.21488629601
-14.5268888196,-7.52916218413,-4.5602962484,-10.5532709497
-4.08249748214,-1.33068577185,-2.91799759087,-3.25165560337
-3.2181061447,-5.47220935956,-4.19569893334,-4.71004025705
-2.60371480726,-6.19373294727,-5.32340027582,-2.91842491073
2.40067653018,-10.555256535,-0.611101618295,-1.06680956441
-6.33493213238,-9.95678012269,-0.97880296077,-4.76519421809
-6.16054079495,-2.54830371041,-6.48650430324,-8.28357887177
-0.916149457509,-2.84982729812,-5.73420564572,-6.15196352545
7.76824187993,-7.32135088584,-4.24190698819,-4.01034817913
7.44263321737,-9.45287447355,-5.13960833066,-4.71873283281
13.6870245548,-7.87439806126,-5.64730967314,-0.127117486494
16.4714158922,-1.75592164898,-3.41501101561,0.0244978598257
8.90580722968,-3.08744523669,-2.50271235809,-2.26388679385
7.60019856712,-5.4189688244,-2.83041370056,-3.13227144754
5.07458990456,-8.57049241211,-3.10811504303,-2.15065610122
4.188981242,-4.40201599983,-0.425816385508,-0.849040754898
2.88337257943,0.0364604124625,-2.60351772798,3.75257459142
3.22776391687,3.65493682474,-1.69121907045,4.49418993774
-3.7478447457,0.833413237029,-0.388920412926,0.195805284062
-12.7534534083,-7.06811035068,-3.5166217554,-5.80257936962
-5.17906207082,-0.149633938396,-1.45432309788,-5.4109640233
-7.80467073338,-3.51115752611,-2.17202444035,-7.47934867698
-11.9102793959,-4.74268111381,-3.83972578283,-9.05773333066
-5.1458880585,-4.28420470153,-2.0974271253,-3.09611798434
-3.85149672106,-5.33572828925,-1.10512846777,2.16549736198
1.12289461638,-0.717251876958,0.317170189755,1.8071127083
-3.65271404618,3.58122453533,4.46946884728,3.26872805462
4.18167729125,7.12970094761,2.41176750481,7.19034340094
8.50606862869,-0.851822640099,1.14406616233,2.31195874725
1.55045996612,-2.47334622782,2.32636481986,-1.92642590643
-1.97514869643,1.16513018448,2.91866347738,-1.28481056011
4.76924264101,6.20360659677,2.58096213491,4.42680478621
8.80363397844,6.29208300905,0.513260792439,8.18842013253
4.61802531588,-0.939440578659,-0.0744405500373,2.95003547885
1.54241665332,0.749035833622,-0.84214189251,0.171650825172
-0.0531920092471,2.33751224591,-4.87984323498,0.453266171489
10.2611993282,6.7259886582,-0.147544577459,1.75488151781
6.60559066563,1.29446507048,1.23475408007,-0.553503135872
2.70998200307,-2.85705851723,-1.23294726241,-3.40188778955
5.27437334052,-6.12858210494,-0.880648604882,-4.58027244323
8.12876467795,-6.29010569265,-1.24834994736,-3.62865709691
0.51315601539,6.84837071964,0.553948710174,3.5629582494
-11.1124526472,4.80684713192,-1.0137526323,-1.54542640428
-1.76806130974,1.4753235442,-0.131453974776,-5.13381105796
1.9363300277,0.863799956496,2.32084468275,-2.21219571164
-1.17927863487,11.0222763688,4.79314334028,2.42941963468
-0.964887297429,11.7507527811,3.8054419978,3.441034981
-0.350495959989,11.3892291934,6.18774065533,3.88265032732
-6.01610462255,13.2777056056,7.27003931285,6.21426567364
-1.26171328511,7.39618201793,4.94233797038,6.65588101996
-1.44732194767,10.0846584302,6.23463662791,4.80749636628
7.88777252908,16.7785646802,2.90131177325,11.7937609012
9.65160558964,16.5490437306,2.97286222761,11.1138763791
3.81543865021,6.64952278087,2.41441268197,10.053991857
1.10927171078,2.36000183118,-1.55403686367,7.22410733497
4.64310477134,2.78048088149,-1.15248640932,4.9442228129
8.32693783191,11.8809599318,1.86906404504,8.50433829084
0.100770892481,5.46143898211,-0.409385500599,3.87445376877
-3.02539604696,0.931918032424,-0.22783504624,5.87456924671
3.80843701361,-3.53760291727,1.70371540812,-1.26531527536
3.14227007417,-0.58712386695,-0.0147341375232,-1.51519979743
0.106103134742,6.14335518336,1.48681631684,5.40491568051
-0.370063804694,4.62383423367,2.71836677119,0.745031158443
1.28376925587,-0.98568671602,3.18991722555,-1.72485336362
-5.13239768357,-0.695207665703,1.45146767991,1.08526211431
-6.918564623,-6.6647286154,-0.0469818657366,-2.09462240775
0.565268437567,6.76575043491,3.13456858862,4.93549307018
0.00910149812989,2.58622948523,3.17611904298,3.69560854812
4.0729345587,-3.26329146446,0.877669497339,1.00572402605
1.99676761927,-6.62281241416,-0.010780048302,-1.10416049602
4.25060067983,-4.36233336384,-0.829229593943,-0.644045018083
-1.5655662596,1.00814568647,-0.427679139586,0.956070459853
3.86826680096,-0.801375263218,0.173871314775,-0.323814062212
-1.35790013847,-6.15089621291,-1.27457823087,-5.36369858428
-11.8040670779,-11.1504171626,-2.76302777651,-6.58358310634
-12.2102340173,-4.62993811229,-2.43147732215,-2.07346762841
-4.44640095678,-1.89945906198,-1.38992686779,-2.12335215048
0.647432103789,-4.93898001167,-1.67837641343,-3.99323667254
3.64126516435,-9.34850096135,-1.25682595908,-7.10312119461
-0.114901775079,-13.588021911,-1.67527550472,-6.69300571667
3.81893128548,0.162457139275,-0.353725050358,0.837109761263
14.3027643461,5.59293618958,0.277825403999,6.5272252392
13.5365974066,3.1534152399,-0.910624141641,6.13734071713
12.0404304672,-1.5361057098,-2.73907368728,3.03745619507
8.37426352774,1.59437334051,1.58247676707,4.487571673
6.55809658831,4.89485239083,3.48402722143,4.51768715093
8.04192964888,2.97533144114,0.115577675791,1.73780262887
1.32576270944,4.04581049144,-1.29287186985,2.8979181068
-1.91040423,1.92628954176,0.898678584508,1.40803358474
-3.43657116942,0.426768592071,-0.209770961133,-7.16185093733
-4.95273810886,-3.81275235762,-2.37822050678,-6.47173545939
-5.6689050483,-4.42227330731,-2.77667005242,-6.19161998146
-14.9450719877,-6.211794257,-2.39511959806,-8.08150450353
-10.5012389272,-4.30131520669,-0.843569143704,-5.05138902559
-11.9574058666,-5.58083615638,0.277981310654,-5.43127354766
-7.61357280603,-4.53035710606,-0.210468234989,-6.70115806972
-2.80973974547,-0.459878055757,-1.01891778063,-2.99104259179
2.3040933151,3.56060099456,-0.0973673262706,-0.140927113855
7.41792637567,0.371080044868,-0.585816871913,2.43918836408
-2.56824056377,-3.67844090482,-0.674266417554,-1.01069615798
0.335592496791,6.29203814549,4.13728403681,4.83941931995
4.64942555736,13.5525171958,5.76883449116,9.31953479789
7.62325861792,3.23299624612,1.28038494552,5.88965027582
4.71709167849,5.91347529642,6.29193539988,7.04976575375
2.70092473905,-1.57604565327,3.10348585424,2.13988123169
8.40475779962,1.40443339705,1.4250363086,3.00999670962
7.27859086019,3.94491244735,0.406586762954,3.65011218756
3.23242392075,0.905391497668,1.11813721731,2.18022766549
13.6662569813,-6.22412945202,-3.01031232833,-4.12965685657
2.14009004188,-11.1636504017,-5.30876187397,-6.16954137864
-6.49607689754,-5.0631713514,-2.46721141961,-4.63942590071
-8.10224383698,-3.47269230109,-0.805660965252,-2.13931042277
-6.46841077642,0.707786749219,-1.29411051089,-0.859194944838
-6.94457771585,-4.59173420047,-2.74256005654,-6.1390794669
-9.11074465529,-8.03125515016,-3.57100960218,-8.22896398897
-12.2169115947,0.41922390015,1.46054085218,-5.34884851103
-7.57307853416,2.94970295047,1.75209130654,-3.0387330331
-5.3092454736,6.19018200078,1.8536417609,0.691382444835
-1.55541241302,-1.67933894891,-0.0248077847464,-4.16850207723
-4.75157935246,0.1511401014,0.0667426696091,-3.1283865993
-12.6277462919,5.63161915171,1.36829312397,0.171728878639
-6.63391323133,12.382098202,2.77984357833,3.56184435657
-7.02008017076,6.50257725234,1.93139403269,1.72195983451
-6.5762471102,1.36305630265,1.91294448704,-0.457924687558
-5.70241404963,0.853535352959,0.244494941402,-3.25780920962
-1.78858098906,4.04401440327,-0.45395460424,-2.35769373169
-3.3347479285,0.854493453575,1.02759585012,-4.88757825376
2.74908513207,-3.35502749611,-1.69085369552,-8.31746277582
-1.83708180737,-9.6745484458,-1.84930324116,-11.2273472979
-8.29324874681,-11.3240693955,-1.86775278681,-11.97723182
-10.6194156862,-6.39359034518,-2.30620233245,-6.23711634202
-3.33558262567,-5.33311129487,-5.08465187809,-6.49700086408
-3.96174956511,-2.30263224456,-2.08310142373,-4.73688538615
-2.68791650455,-12.0921531943,-4.47155096937,-8.12676990821
-3.69408344397,-14.4116741439,-4.58000051502,-9.89665443028
-1.53025038341,-9.78119509362,-3.63845006066,-8.65653895235
4.46358267716,0.359283956692,-1.6168996063,-2.20642347441
-4.91258426228,-5.090236993,-2.95534915194,-8.84630799648
-4.72875120171,-8.14975794269,-4.56379869758,-8.94619251854
0.635081858854,-5.68927889238,-2.03224824322,-2.83607704061
1.70891491941,-0.438799842064,0.179302211134,2.03403843732
-0.757252020019,5.66167920824,-2.02914733451,2.69415391526
-1.53341895945,2.38215825856,-1.59759688015,0.314269393195
-5.44958589888,-5.19736269113,-1.41604642579,-3.98561512887
-3.52575283832,-9.97688364083,-1.64449597143,-6.76549965094
-3.86191977776,-10.4264045905,-4.74294551707,-7.695384173
-4.24808671718,-7.8359255402,-2.75139506272,-6.58526869507
-1.27425365662,1.91455351011,0.380155391642,0.604846782866
0.579579403944,-0.614967439578,-1.938294154,-0.455037739199
-3.5965875355,-7.07448838927,-4.95674369964,-3.90492226126
3.48724552507,1.50599066104,1.06480675472,0.665193216668
2.75107858564,3.85646971135,0.556357209072,-0.304691305397
5.0649116462,5.84694876166,0.417907663432,5.54542417254
7.86874470677,-0.95257218802,2.45945811779,0.0155396504724
-0.427422232664,1.13790686229,1.25100857215,1.46565512841
9.0464108279,2.3383859126,0.792559026508,5.16577060634
3.50024388847,5.46886496291,2.13410948087,4.59588608427
1.15407694903,7.76934401322,1.62565993522,6.12600156221
-1.3720899904,1.68982306353,-1.55278961042,-0.253882959856
-2.75825692983,0.0203021138441,0.97876084394,-1.44376748192
1.01557613073,-3.57921883585,-0.129688701702,-0.403652003986
2.93940919129,4.19126021447,1.61186175266,4.77646347395
7.58324225186,13.2017392648,2.51341220702,10.9365789519
8.54707531242,2.09221831509,-0.795037338627,5.51669442982
0.590908372993,-1.4773026346,-1.68348688427,2.10680990775
1.05474143355,1.7631764157,-3.29193642991,3.30692538568
5.39857449412,6.63365546602,3.52961402445,8.30704086362
4.38240755469,5.43413451633,3.22116447881,7.08715634155
1.05624061525,0.35461356664,2.66271493317,2.11727181949
3.47007367582,1.47509261695,2.73426538752,5.44738729742
-3.01609326362,8.65557166726,5.15581584188,4.78750277536
3.17773979695,5.43605071757,3.40736629624,5.35761825329
6.08157285752,5.09652976789,1.7889167506,4.36773373123
1.11540591808,4.4970088182,3.33046720496,4.04784920916
1.80923897865,0.917487868515,1.59201765931,3.92796468709
1.90307203922,-2.01203308118,-0.576431886329,0.53808016503
9.78690509978,3.10844596913,-0.194881431969,5.98819564296
2.59073816034,6.90892501944,2.64666902239,7.0983111209
2.03457122091,-1.49059593025,2.67821947675,6.68842659883
0.618321220943,-3.78094476743,3.65951308139,1.30963299419
5.98373028637,3.19093526828,2.42119028681,1.99096013208
9.37913935178,4.13281530399,1.95286749222,1.98228726996
9.47454841719,2.5046953397,2.47454469763,1.95361440785
8.97995748262,2.23657537541,1.39622190304,1.54494154574
2.09536654803,-7.52154458889,-0.632100891547,-4.03373131637
2.93077561345,-1.21966455318,-1.79042368614,0.427595821511
1.51618467888,-2.48778451747,-1.03874648073,-1.7710770406
3.71159374429,1.15409551824,-0.647069275314,2.17025009729
1.74700280971,1.45597555394,2.2846079301,1.29157723517
-0.39758812487,-5.60214441035,0.236285135506,-5.03709562694
-3.32217905945,0.899735625353,1.16796234092,1.27423151094
-3.23676999404,6.63161566107,2.77963954633,5.71555864883
-1.47136092862,5.87349569677,-0.38868324826,1.43688578672
-3.5659518632,-0.894624267523,-1.08700604285,-6.9117870754
-3.43054279778,-8.53274423182,-1.50532883744,-7.59045993751
-0.295133732361,-2.07086419611,-1.90365163203,-4.24913279962
1.26027533305,4.6310158396,0.588025573383,-2.98780566173
-6.60431560153,4.05289587531,0.599702778796,-2.63647852385
-1.9489065361,2.40477591102,0.811379984207,-3.04515138596
-6.15349747069,-2.06334405328,0.55305718962,-2.67382424807
-1.63808840528,3.92853598243,1.58473439503,2.16750288981
3.05732066015,7.85041601814,1.52641160044,3.4488300277
-3.15727027444,2.15229605385,-1.12191119415,-0.109842834414
-6.57186120901,-9.57582391045,-4.67023398874,-5.74851569653
-4.4064521436,-13.6439438747,-4.45855678332,-11.9271885586
-2.82104307818,-11.382063839,-5.16687957792,-10.4158614208
-6.05563401276,-0.420183803319,-6.5852023725,-5.89453428287
-9.00022494735,1.65169623239,-3.44352516709,-7.37320714498
-5.11481588193,-4.97642373191,-2.57184796168,-9.84188000709
-6.55940681651,-9.2445436962,-2.47017075627,-6.50055286921
-5.33399775109,-5.7026636605,-0.318493550858,-8.54922573132
-7.22858868568,1.26921637521,-2.85681634545,-2.31789859343
-6.15317962025,0.0910964109207,-3.31513914004,0.603428544455
-11.2577705548,2.68297644662,0.266538065374,-2.53524431766
-6.78236148942,-2.42514351767,0.118215270784,-4.76391717977
-1.56695242399,4.54673651804,2.3398924762,2.40740995812
2.93845664142,11.1486165537,4.68156968161,9.128737096
3.81386570683,14.0704965895,2.76324688702,12.1300642339
7.23927477226,6.90237662516,1.29492409243,10.0213913718
5.72468383767,1.32425666087,1.72660129784,7.19271850966
6.26009290309,10.9761366966,3.23827850325,12.6240456475
3.84550196851,13.1780167323,-1.09004429134,12.8153727854
0.0209110339274,5.32989676799,-1.41836708592,12.0866999233
-0.893679900655,4.8717768037,0.983310119485,8.25802706121
3.67172916477,7.04365683941,1.5549873249,12.9593541991
10.0371382302,8.87553687512,1.42666453031,13.130681337
18.1525472956,11.9674169108,3.08834173572,15.3820084749
11.157956361,10.8092969465,0.260018941131,12.1733356128
2.02336542644,0.901176982239,-1.65830385346,5.66466275064
11.2087744919,-1.41694298205,-2.42662664804,8.93598988853
14.2441835573,1.64493705365,-1.08494944264,10.3773170264
6.24959262269,8.62681708937,0.0667277627726,11.4486441643
7.83500168811,10.5786971251,2.82840496819,14.1399713022
12.5304107535,2.49057716077,1.2900821736,9.46129844008
5.33581981895,2.45245719648,2.33175937901,10.302625578
6.57122888436,6.94433723219,2.56343658442,13.1239527158
-0.223362050216,2.1662172679,-0.40488621017,2.47527985374
-5.1679529848,-4.9119026964,-0.993209004759,-0.723393008377
-9.92254391938,-9.11002266069,-1.92153179935,-3.28206587049
-6.43713485396,-13.428142625,-3.12985459394,-6.8207387326
-3.91172578854,-10.2862625893,-1.50817738852,-6.71941159471
1.21368327687,-0.974382553562,-1.00650018311,-2.27808445683
4.80909234229,-4.47250251786,-1.82482297771,-0.506757318943
0.294501407712,-7.91062248215,-3.49314577229,-4.04543018106
-5.83008952688,-12.5087424464,-1.78146856688,-6.75410304317
-5.46468046145,-11.0368624107,-2.08979136147,-5.94277590528
-0.259271396033,-6.58498237502,-2.61811415606,-6.7314487674
-4.28386233062,-3.16310233932,-1.15643695065,-2.20012162951
-1.92845326519,-5.19122230361,0.845240254763,-4.60879449162
2.96695580022,-6.32934226791,0.696917460176,-3.56746735374
3.12236486565,-1.5174622322,1.95859466559,-1.64614021585
-1.30222606894,4.34441780351,1.990271871,0.995186922039
2.14318299647,1.84629783922,0.831949076408,1.05651405992
-1.07140793811,-5.71182212508,1.42362628182,-4.63215880219
-1.99599887269,-7.57994208937,0.445303487231,-6.8708316643
1.89941019273,2.01193794634,1.23698069264,-0.449504526414
1.40481925815,-4.57618201795,-1.10134210195,-5.56817738853
-10.5897716764,-9.76430198224,-1.95966489653,-13.5168502506
-10.364362611,-7.41242194654,-2.59798769113,-11.6455231128
-8.68895354559,-9.53054191083,-0.246310485716,-12.4641959749
-5.02354448018,-6.08866187512,1.3453667197,-6.73286883698
-8.37813541476,-2.32678183942,1.55704392511,-6.06154169909
-6.52272634934,-3.21490180371,-0.461278869479,-8.04021456121
-3.18731728393,-7.373021768,0.910398335935,-7.64888742332
-7.43190821851,-9.5311417323,1.00207554134,-7.52756028543
-9.35649915309,-0.459261696589,4.01375274675,-8.00623314755
-7.79109008767,-7.24738166088,0.375429952164,-11.7049060097
-2.30568102226,-6.48550162517,-0.152892842423,-6.95357887177
-6.53027195683,-1.81362158946,-0.391215637013,-2.13225173389
-5.88486289141,-8.37174155376,-3.1995384316,-6.940924596
6.950546174,-1.72986151806,0.682138773813,-1.40959745811
0.535955239422,4.12201851766,0.193815979223,0.461729679775
-2.00863569516,4.71389855337,2.19549318463,-1.56694318234
-2.46322662975,-5.52422141092,-0.142829609958,-9.59561604445
-2.88781756433,-7.02234137522,1.17884759546,-9.36428890656
1.7875915011,-2.54046133951,-0.289475199133,-6.26296176868
2.17300056651,0.521418696197,-0.517797993725,-0.551634630792
0.388409631931,3.83329873191,1.12387921169,-1.43030749291
-3.25618130266,-2.15482123239,-0.1644435829,-4.14898035502
1.70922776276,-5.34294119669,-1.43276637749,-3.34765321713
2.35463682819,1.15893883902,2.57891082792,-0.116326079245
2.6700458936,10.6708188747,5.35058803333,5.88500105864
-2.67454504098,17.8026989104,5.54226523874,7.75632819653
-2.99913597556,1.32457894615,0.613942444154,-2.11234466559
-3.65372691015,-1.95354101815,0.175619649566,-4.2010175277
-0.698317844726,6.96833901756,1.85729685498,4.33030961019
0.147091220693,9.63021905327,6.08897406039,3.83163674807
-3.69749971389,9.14209908898,4.1106512658,3.35296388596
1.57790935153,2.57397912468,2.44232847121,3.56429102385
3.90331841695,3.83585916039,3.61400567662,5.74561816174
8.91872748236,8.5577391961,1.90568288203,7.67694529962
10.0341365478,7.81961923181,0.727360087443,7.28827243751
1.3195456132,0.181499267514,-0.760962707147,-1.8804004246
-0.0150453213791,-3.55662069678,-1.64928550173,-1.57907328672
-2.36963625596,-3.68474066107,-2.48760829632,-1.42774614883
0.0757728094613,0.0771393746327,-0.555931090912,0.253580989058
1.97118187488,7.02901941035,1.5957461145,8.04490812694
0.606590940297,9.16089944605,-0.452576680091,9.49623526483
4.05200000571,1.16277948176,-1.94089947468,3.62756240272
3.09740907113,-4.40534048253,-0.629222269268,-1.5911104594
3.78281813655,-3.27346044683,-2.81754506386,-0.0597833215088
5.37822720197,5.19841958889,-2.51586785844,4.78154381638
-0.796363732617,7.03029962459,-0.584190653033,5.62287095426
2.9190453328,-0.2278203397,-2.79251344762,4.29419809215
4.59445439822,0.0440596960034,-2.69083624221,3.28552523004
0.869863463638,-5.40406026829,-4.9791590368,2.28685236792
3.05527252906,-1.71218023258,-4.37748183139,3.08817950581
3.34257630815,2.61540697675,0.570032703479,1.22456031977
0.676453059197,-4.47546311343,-0.891228884368,-5.88695219511
1.25032981025,-7.77633320362,-1.29249047222,-8.07846470998
1.6742065613,-7.3272032938,-3.34375206007,-5.72997722486
3.88808331235,-6.17807338398,-4.17501364792,-5.87148973974
2.65196006341,-2.15894347417,-2.67627523577,-4.99300225462
4.36583681446,-6.45981356435,-3.66753682362,-1.4845147695
4.49971356551,-7.77068365454,-3.59879841147,-4.34602728438
4.16359031657,2.68844625528,-0.250059999322,1.50246020075
3.53746706762,0.867576165088,1.33867841283,2.13094768587
0.621343818668,-0.0332939250948,1.13741682498,-1.20056482901
4.10522056972,-4.33416401528,-2.22384476287,-3.35207734389
7.87909732077,-8.00503410547,-1.61510635072,-4.51358985877
5.66297407183,-5.01590419566,-1.39636793857,-4.13510237365
2.68685082288,2.89322571416,0.142370473579,2.12338511147
-4.93927242606,-0.627644376029,-0.0588911142731,-4.1981274034
-1.09539567501,-3.73851446621,-1.94015270212,-0.339639918282
0.348481076042,-6.5393845564,-1.22141428997,0.50884756684
3.8123578271,1.38974535342,0.967324122175,0.717335051961
2.17623457815,7.74887526323,0.31606253433,1.53582253708
-6.1198886708,0.278005173051,-0.465199053524,-2.37568997779
-5.74601191975,-4.22286491714,-0.266460641375,-0.207202492673
-5.4321351687,-4.47373500732,-0.267722229226,-1.96871500755
0.0117415823552,1.10539490249,4.16101618293,0.0997724775698
-7.63438166659,0.0845248123078,3.50975459507,-0.591740037307
-1.69050491554,0.973654722126,2.27849300722,-0.343252552188
-2.16662816449,-1.04721536806,1.49723141938,0.525234932935
1.06724858657,-5.40808545824,-0.544030168476,-1.28627758194
-0.0688746623782,0.191044451567,1.29470824367,0.0522099031787
3.87500208867,5.93017436138,1.60344665583,4.0106973883
6.37887883973,7.3093042712,1.89218506798,5.07918487342
-0.487244409225,1.80843418102,-0.549076519877,1.23767235854
-1.87336765817,-5.42243590917,-4.06033810772,-4.48384015634
-3.77949090712,-3.48330599935,-0.521599695574,-0.555352671212
-2.01561415607,2.94582391046,1.45713871657,-2.18686518609
1.82826259499,14.6749538203,2.21587712872,5.26162229903
0.522139346038,0.334083730093,-0.305384459127,5.77010978415
1.01601609709,-0.116786360093,1.50335395302,7.39859726927
6.70989284814,5.12234354972,2.10209236517,7.8070847544
7.1037695992,11.3814734595,1.79083077733,8.98557223952
7.10764635025,10.8806033693,1.20956918947,9.20405972464
2.1115231013,2.26973327916,-0.691692398374,2.25254720976
2.86539985236,-2.21113681103,-2.93295398623,0.00103469488386
4.04927660341,5.86799309879,-0.364215574078,3.54952218
0.223153354462,0.2771230086,2.38452283807,-0.271990334873
2.11703010551,4.51625291842,1.60326125022,4.82649715025
-2.10909314343,5.26538282823,0.511999662373,5.91498463537
-7.38521639237,-2.20548726195,-1.47926192548,0.353472120491
-0.0813396413214,-2.09635735214,-2.53052351333,-2.82804039439
-2.76746289027,7.21277255768,1.28821489882,0.350447090736
-1.94358613922,5.2419024675,-0.163046689027,-0.121065424144
-4.24970938817,-0.0389676226914,-0.684308276879,-1.60257793902
-2.86583263712,1.25016228712,1.68443013527,2.0859095461
-5.96195588606,3.64929219694,1.30316854742,3.58439703122
1.15192086499,8.04842210675,1.14190695957,8.66288451634
-1.94420238396,11.6875520166,1.68064537172,5.80137200147
-1.0003256329,-1.15331807362,-0.670616216128,-3.46014051341
-3.01644888185,-5.2241881638,0.318122196022,-5.20165302829
-5.0825721308,-2.41505825399,-0.173139391831,-1.51316554317
-7.13869537975,1.97407165583,1.29559902032,-1.56467805805
-1.60481862869,-3.95679843435,-3.66566256753,-5.69619057293
-8.89094187764,-5.54766852454,-5.85692415538,-5.6077030878
-5.51706512659,-5.82853861473,3.59181425677,-1.55921560268
-7.85318837553,-4.03940870491,2.34055266892,-3.33072811756
-0.24931162448,-0.0902787950981,0.419291081071,-3.37224063244
6.76456512657,3.56885111472,2.08802949322,2.65624685268
-3.34155812238,1.83798102454,2.53676790537,3.4147343378
-7.32768137132,-2.21288906565,1.17550631752,2.16322182293
-2.83380462028,-1.30375915583,1.17424472967,2.50170930805
0.490072130779,3.33537075397,2.00298314182,3.35019679317
-5.57605111817,2.38450066379,0.861721553971,0.88868427829
-3.47217436712,-5.3763694264,-1.24954003388,-2.40282823659
-10.6082976161,-2.87723951658,0.879198378268,-4.54434075147
-6.65442086501,-3.70810960676,-0.402063209582,-4.94585326634
7.66945588604,-1.45897969695,-0.373324797434,-2.42736578122
2.9233326371,-0.469849787136,-1.78458638528,-2.7788782961
-1.84279061185,-3.96071987732,-1.58584797313,-1.96039081098
-4.50891386079,-7.7015899675,-1.96710956098,-3.48190332586
-6.02503710974,-8.06246005769,-2.45837114883,-3.25341584073
0.378839641307,8.08666985213,-2.05963273668,1.86507164439
1.41271639236,-0.254200238058,-6.08089432453,-4.12644087049
-7.62340685658,-5.13507032824,-0.502155912382,-7.52795338537
-7.76953010554,-3.30594041843,1.82658249977,-3.85946590025
2.71434664552,-1.28681050862,0.845320911918,-0.420978415128
0.228223396574,2.1723194012,1.04405932407,1.83750907
-5.31789985237,0.871449311016,-0.0272022637837,1.96599655512
-5.43402310132,0.440579220827,1.64153614837,4.13448404024
1.42985364973,0.119709130646,1.35027456052,5.96297152536
3.88373040078,-0.58116095954,1.32901297267,3.13145901048
-1.62239284816,3.63796895027,1.45775138482,1.5799464956
-3.99851609711,3.91709886009,0.456489796969,-0.871566019276
-2.70463934606,0.516228769906,2.99522820912,-0.433078534154
-2.53076259501,3.90535867972,3.26396662126,2.78540895097
1.00311415605,5.79448858953,2.88270503342,3.50389643609
6.1569909071,8.22361849935,1.72144344557,7.14238392121
6.73086765815,9.76274840916,1.01018185771,7.88087140633
-0.3052555908,7.89187831898,0.798920269866,5.73935889146
-2.48137883974,5.99100822879,3.41765868201,4.90784637658
0.672497911306,10.5001381386,8.24639709416,8.8663338617
1.84637466236,12.1492680484,6.07513550632,11.7048213468
1.58025141341,12.4283979582,4.26387391847,9.51330883194
2.40412816447,5.57752786805,1.80261233062,5.01179631706
5.76800491552,-0.683342222139,-0.168649257233,4.12028380219
-0.558118333429,3.82578768768,-0.369910845086,4.51877128731
6.79575841762,1.58491759749,-0.591172432938,0.407258772429
0.639635168671,3.22404750731,1.43756597921,1.94574625755
2.76351191973,-1.38682258288,1.57630439136,-0.465766257328
-2.15261132922,-7.11769267306,0.00504280351379,-4.66727877221
2.46126542184,-2.73856276325,-0.616218784337,-0.108791287084
6.05514217289,0.340567146566,-1.02748037218,-0.620303801961
0.0190189239438,-2.76030294361,-2.11874196004,-6.01181631684
1.002895675,-9.4211730338,-3.62000354789,-4.11332883172
1.50677242605,-6.92204312399,-2.10126513574,-3.5348413466
0.810649177103,-4.85291321417,-3.02252672359,-3.55635386148
4.47452592816,0.436216695642,-0.56378831144,1.22213362365
4.2284026792,1.72534660546,2.85495010071,1.56062110877
12.8922794303,-0.495523484722,0.263688512863,-0.45089140611
2.11615618131,-5.21639357491,-2.81757307499,-3.18240392099
-0.659967067637,-1.8772636651,-1.88883466284,-0.113916435866
1.21390968341,1.67186624472,-1.89009625069,1.15457104925
2.77778643447,-2.35900384546,-3.72135783854,-2.44694146562
-2.05833681448,-7.30987393565,-3.58261942639,-4.9484539805
-4.74446006343,-9.62074402584,-2.91388101424,-9.75996649538
1.82941668762,-4.46161411602,-1.04514260209,-7.81147901026
4.10329343867,-0.932484206212,-1.66640418994,-2.78299152514
3.04717018973,-3.78335429639,-2.09766577779,-3.92450404001
-0.758953059216,-7.99422438658,-2.58892736564,-6.07601655489
-2.65507630816,-7.35509447676,-2.39018895349,-8.12752906977
-4.70189290323,-9.84831354837,-3.61662193549,-11.7034425806
-6.39029249409,-7.11742174664,-4.50755937058,-7.86053976396
-5.73869208497,-2.48652994491,-2.93849680567,-4.08763694728
